0.014953
0.014985
0.015018
0.015055
0.015089
0.015126
0.015161
0.015196
0.015232
0.015267
0.015302
0.015337
0.015373
0.015410
0.015446
0.015482
0.015518
0.015557
0.015591
0.015628
0.015666
0.015703
0.015740
0.015779
0.015814
0.015850
0.015890
0.015930
0.015966
0.016004
0.016042
0.016081
0.016120
0.016157
0.016197
0.016237
0.016275
0.016314
0.016356
0.016395
0.016435
0.016473
0.016513
0.016554
0.016595
0.016634
0.016673
0.016716
0.016756
0.016799
0.016840
0.016880
0.016923
0.016962
0.017008
0.017048
0.017091
0.017132
0.017173
0.017217
0.017259
0.017302
0.017342
0.017388
0.017433
0.017475
0.017520
0.017562
0.017605
0.017650
0.017693
0.017741
0.017785
0.017830
0.017876
0.017920
0.017963
0.018009
0.018057
0.018102
0.018146
0.018190
0.018241
0.018285
0.018333
0.018381
0.018423
0.018473
0.018520
0.018565
0.018614
0.018664
0.018713
0.018761
0.018808
0.018860
0.018907
0.018954
0.019005
0.019053
0.019104
0.019152
0.019200
0.019255
0.019302
0.019350
0.019405
0.019456
0.019506
0.019555
0.019607
0.019659
0.019713
0.019765
0.019816
0.019865
0.019920
0.019972
0.020027
0.020078
0.020133
0.020182
0.020239
0.020291
0.020347
0.020402
0.020455
0.020511
0.020567
0.020619
0.020676
0.020729
0.020787
0.020842
0.020899
0.020957
0.021014
0.021068
0.021125
0.021182
0.021239
0.021298
0.021356
0.021415
0.021473
0.021532
0.021589
0.021648
0.021710
0.021768
0.021828
0.021888
0.021945
0.022008
0.022068
0.022128
0.022186
0.022249
0.022309
0.022374
0.022434
0.022498
0.022561
0.022621
0.022687
0.022747
0.022812
0.022875
0.022938
0.023002
0.023064
0.023128
0.023196
0.023262
0.023326
0.023391
0.023455
0.023524
0.023588
0.023654
0.023724
0.023788
0.023859
0.023923
0.023992
0.024061
0.024126
0.024200
0.024267
0.024335
0.024403
0.024472
0.024544
0.024612
0.024686
0.024753
0.024826
0.024897
0.024971
0.025042
0.025109
0.025183
0.025257
0.025331
0.025402
0.025476
0.025551
0.025624
0.025697
0.025772
0.025848
0.025922
0.025997
0.026077
0.026148
0.026225
0.026304
0.026377
0.026457
0.026534
0.026612
0.026687
0.026765
0.026844
0.026922
0.027001
0.027085
0.027161
0.027242
0.027322
0.027403
0.027488
0.027564
0.027650
0.027733
0.027813
0.027894
0.027977
0.028062
0.028143
0.028224
0.028313
0.028396
0.028482
0.028567
0.028652
0.028738
0.028821
0.028908
0.028994
0.029083
0.029171
0.029258
0.029348
0.029437
0.029524
0.029613
0.029699
0.029795
0.029886
0.029972
0.030064
0.030156
0.030249
0.030343
0.030434
0.030524
0.030616
0.030707
0.030805
0.030900
0.030995
0.031085
0.031183
0.031277
0.031379
0.031469
0.031569
0.031661
0.031762
0.031859
0.031960
0.032057
0.032156
0.032258
0.032355
0.032451
0.032558
0.032657
0.032758
0.032858
0.032968
0.033063
0.033170
0.033273
0.033377
0.033480
0.033581
0.033690
0.033793
0.033899
0.034004
0.034108
0.034214
0.034327
0.034436
0.034536
0.034654
0.034760
0.034868
0.034978
0.035085
0.035201
0.035310
0.035421
0.035533
0.035646
0.035760
0.035875
0.035988
0.036102
0.036216
0.036331
0.036443
0.036563
0.036685
0.036796
0.036915
0.037033
0.037152
0.037271
0.037387
0.037506
0.037629
0.037749
0.037870
0.037992
0.038113
0.038235
0.038361
0.038484
0.038605
0.038730
0.038860
0.038981
0.039108
0.039233
0.039362
0.039488
0.039616
0.039746
0.039873
0.040004
0.040134
0.040265
0.040395
0.040530
0.040658
0.040790
0.040922
0.041060
0.041194
0.041328
0.041464
0.041599
0.041737
0.041871
0.042008
0.042149
0.042284
0.042427
0.042563
0.042703
0.042848
0.042984
0.043128
0.043266
0.043415
0.043556
0.043701
0.043845
0.043989
0.044133
0.044281
0.044429
0.044575
0.044725
0.044874
0.045025
0.045174
0.045320
0.045474
0.045622
0.045776
0.045932
0.046080
0.046236
0.046390
0.046546
0.046704
0.046857
0.047018
0.047171
0.047333
0.047492
0.047651
0.047811
0.047971
0.048137
0.048293
0.048456
0.048620
0.048788
0.048953
0.049116
0.049283
0.049448
0.049615
0.049786
0.049954
0.050124
0.050289
0.050463
0.050635
0.050805
0.050975
0.051151
0.051324
0.051500
0.051674
0.051852
0.052026
0.052206
0.052385
0.052561
0.052743
0.052924
0.053108
0.053288
0.053468
0.053656
0.053836
0.054023
0.054210
0.054394
0.054582
0.054766
0.054953
0.055146
0.055334
0.055527
0.055718
0.055907
0.056101
0.056296
0.056492
0.056690
0.056887
0.057077
0.057280
0.057476
0.057677
0.057877
0.058076
0.058279
0.058480
0.058684
0.058886
0.059095
0.059297
0.059506
0.059714
0.059923
0.060131
0.060340
0.060553
0.060762
0.060975
0.061186
0.061400
0.061616
0.061835
0.062050
0.062266
0.062487
0.062704
0.062926
0.063148
0.063366
0.063588
0.063816
0.064041
0.064267
0.064492
0.064715
0.064944
0.065175
0.065408
0.065635
0.065869
0.066103
0.066333
0.066572
0.066810
0.067041
0.067278
0.067519
0.067759
0.067998
0.068239
0.068481
0.068721
0.068967
0.069215
0.069458
0.069709
0.069955
0.070206
0.070455
0.070707
0.070957
0.071212
0.071459
0.071720
0.071974
0.072232
0.072494
0.072752
0.073013
0.073272
0.073536
0.073796
0.074061
0.074327
0.074594
0.074863
0.075131
0.075401
0.075670
0.075943
0.076217
0.076490
0.076764
0.077042
0.077323
0.077597
0.077874
0.078158
0.078440
0.078724
0.079010
0.079291
0.079577
0.079868
0.080154
0.080444
0.080735
0.081026
0.081317
0.081615
0.081909
0.082208
0.082504
0.082803
0.083106
0.083406
0.083708
0.084014
0.084315
0.084622
0.084932
0.085239
0.085550
0.085861
0.086173
0.086488
0.086801
0.087119
0.087435
0.087755
0.088076
0.088398
0.088720
0.089044
0.089369
0.089695
0.090023
0.090350
0.090681
0.091011
0.091346
0.091681
0.092017
0.092352
0.092693
0.093032
0.093368
0.093714
0.094058
0.094403
0.094750
0.095096
0.095447
0.095796
0.096148
0.096502
0.096853
0.097212
0.097570
0.097928
0.098290
0.098651
0.099013
0.099377
0.099742
0.100112
0.100480
0.100850
0.101221
0.101596
0.101969
0.102347
0.102724
0.103104
0.103484
0.103865
0.104250
0.104633
0.105019
0.105411
0.105798
0.106191
0.106584
0.106977
0.107373
0.107769
0.108170
0.108570
0.108972
0.109375
0.109781
0.110189
0.110595
0.111005
0.111415
0.111830
0.112245
0.112664
0.113081
0.113499
0.113922
0.114341
0.114766
0.115194
0.115623
0.116052
0.116482
0.116916
0.117351
0.117786
0.118222
0.118664
0.119104
0.119551
0.119992
0.120439
0.120888
0.121338
0.121788
0.122240
0.122697
0.123154
0.123613
0.124074
0.124534
0.125000
0.125463
0.125932
0.126403
0.126872
0.127345
0.127823
0.128295
0.128776
0.129254
0.129736
0.130221
0.130708
0.131196
0.131683
0.132173
0.132667
0.133165
0.133660
0.134160
0.134660
0.135162
0.135667
0.136169
0.136683
0.137190
0.137702
0.138217
0.138731
0.139249
0.139770
0.140293
0.140818
0.141342
0.141871
0.142400
0.142929
0.143465
0.144001
0.144538
0.145080
0.145621
0.146165
0.146711
0.147257
0.147807
0.148360
0.148914
0.149468
0.150026
0.150587
0.151148
0.151711
0.152281
0.152847
0.153417
0.153990
0.154568
0.155143
0.155721
0.156304
0.156883
0.157472
0.158057
0.158648
0.159239
0.159834
0.160429
0.161028
0.161628
0.162233
0.162836
0.163443
0.164052
0.164662
0.165278
0.165894
0.166511
0.167132
0.167753
0.168378
0.169005
0.169635
0.170267
0.170901
0.171540
0.172174
0.172814
0.173459
0.174099
0.174744
0.175401
0.176051
0.176703
0.177364
0.178027
0.178686
0.179343
0.180014
0.180675
0.181347
0.182024
0.182698
0.183379
0.184058
0.184737
0.185416
0.186111
0.186799
0.187490
0.188184
0.188883
0.189576
0.190282
0.190990
0.191694
0.192400
0.193115
0.193824
0.194537
0.195263
0.195981
0.196705
0.197432
0.198158
0.198886
0.199619
0.200352
0.201095
0.201831
0.202575
0.203322
0.204068
0.204821
0.205571
0.206320
0.207082
0.207848
0.208609
0.209376
0.210143
0.210912
0.211687
0.212457
0.213234
0.214017
0.214796
0.215580
0.216370
0.217161
0.217953
0.218752
0.219551
0.220350
0.221153
0.221954
0.222766
0.223577
0.224389
0.225204
0.226017
0.226843
0.227667
0.228491
0.229325
0.230152
0.230984
0.231823
0.232659
0.233501
0.234347
0.235192
0.236043
0.236894
0.237749
0.238607
0.239462
0.240328
0.241191
0.242057
0.242925
0.243801
0.244676
0.245553
0.246431
0.247318
0.248201
0.249091
0.249981
0.250874
0.251770
0.252664
0.253568
0.254470
0.255372
0.256283
0.257194
0.258109
0.259026
0.259941
0.260863
0.261788
0.262713
0.263643
0.264575
0.265511
0.266445
0.267386
0.268329
0.269273
0.270221
0.271167
0.272122
0.273074
0.274031
0.274992
0.275955
0.276917
0.277887
0.278855
0.279828
0.280803
0.281783
0.282761
0.283744
0.284728
0.285714
0.286706
0.287700
0.288691
0.289690
0.290690
0.291693
0.292697
0.293704
0.294713
0.295727
0.296741
0.297758
0.298779
0.299800
0.300823
0.301849
0.302880
0.303911
0.304945
0.305980
0.307018
0.308060
0.309104
0.310150
0.311197
0.312250
0.313300
0.314355
0.315415
0.316474
0.317536
0.318602
0.319669
0.320736
0.321808
0.322882
0.323957
0.325035
0.326116
0.327199
0.328282
0.329372
0.330459
0.331549
0.332646
0.333738
0.334837
0.335935
0.337040
0.338143
0.339248
0.340357
0.341467
0.342579
0.343696
0.344810
0.345931
0.347050
0.348171
0.349298
0.350425
0.351554
0.352684
0.353815
0.354950
0.356086
0.357224
0.358366
0.359506
0.360650
0.361796
0.362944
0.364091
0.365246
0.366397
0.367554
0.368709
0.369867
0.371028
0.372188
0.373351
0.374516
0.375685
0.376852
0.378021
0.379193
0.380365
0.381538
0.382716
0.383894
0.385074
0.386253
0.387435
0.388620
0.389804
0.390991
0.392179
0.393368
0.394560
0.395753
0.396947
0.398140
0.399338
0.400533
0.401733
0.402930
0.404132
0.405335
0.406539
0.407743
0.408948
0.410155
0.411364
0.412573
0.413783
0.414994
0.416205
0.417419
0.418635
0.419848
0.421065
0.422281
0.423499
0.424716
0.425937
0.427157
0.428379
0.429599
0.430820
0.432043
0.433269
0.434492
0.435721
0.436944
0.438170
0.439398
0.440623
0.441853
0.443082
0.444308
0.445540
0.446769
0.447998
0.449229
0.450462
0.451692
0.452921
0.454156
0.455389
0.456618
0.457851
0.459084
0.460317
0.461550
0.462782
0.464016
0.465249
0.466482
0.467716
0.468949
0.470181
0.471414
0.472648
0.473879
0.475111
0.476345
0.477578
0.478809
0.480039
0.481272
0.482501
0.483733
0.484962
0.486192
0.487420
0.488648
0.489879
0.491106
0.492334
0.493560
0.494786
0.496011
0.497236
0.498459
0.499683
0.500904
0.502127
0.503349
0.504567
0.505788
0.507005
0.508223
0.509439
0.510654
0.511869
0.513084
0.514296
0.515507
0.516716
0.517926
0.519134
0.520340
0.521547
0.522750
0.523954
0.525155
0.526355
0.527554
0.528753
0.529948
0.531143
0.532336
0.533527
0.534718
0.535906
0.537093
0.538278
0.539463
0.540645
0.541826
0.543004
0.544181
0.545356
0.546529
0.547702
0.548871
0.550038
0.551205
0.552367
0.553530
0.554690
0.555848
0.557005
0.558158
0.559311
0.560460
0.561610
0.562753
0.563897
0.565038
0.566176
0.567315
0.568447
0.569579
0.570708
0.571836
0.572961
0.574083
0.575203
0.576320
0.577435
0.578548
0.579658
0.580766
0.581871
0.582972
0.584072
0.585168
0.586263
0.587355
0.588444
0.589529
0.590613
0.591693
0.592770
0.593845
0.594918
0.595988
0.597054
0.598118
0.599178
0.600237
0.601290
0.602341
0.603390
0.604436
0.605478
0.606518
0.607555
0.608588
0.609618
0.610644
0.611669
0.612686
0.613705
0.614720
0.615731
0.616739
0.617744
0.618744
0.619743
0.620737
0.621728
0.622716
0.623700
0.624682
0.625659
0.626633
0.627604
0.628572
0.629537
0.630497
0.631453
0.632407
0.633358
0.634304
0.635247
0.636187
0.637122
0.638055
0.638984
0.639909
0.640831
0.641750
0.642663
0.643574
0.644482
0.645386
0.646285
0.647182
0.648075
0.648963
0.649848
0.650730
0.651608
0.652483
0.653353
0.654221
0.655083
0.655943
0.656799
0.657651
0.658499
0.659343
0.660184
0.661022
0.661855
0.662685
0.663511
0.664333
0.665152
0.665967
0.666777
0.667585
0.668389
0.669190
0.669986
0.670779
0.671568
0.672354
0.673135
0.673913
0.674688
0.675458
0.676225
0.676990
0.677750
0.678506
0.679259
0.680009
0.680755
0.681497
0.682236
0.682971
0.683704
0.684432
0.685157
0.685879
0.686598
0.687313
0.688025
0.688733
0.689439
0.690141
0.690840
0.691536
0.692229
0.692919
0.693606
0.694289
0.694970
0.695648
0.696323
0.696995
0.697664
0.698331
0.698994
0.699649
0.700320
0.700971
0.701621
0.702273
0.702922
0.703568
0.704212
0.704853
0.705491
0.706128
0.706763
0.707395
0.708025
0.708653
0.709280
0.709903
0.710525
0.711146
0.711764
0.712381
0.712996
0.713610
0.714221
0.714831
0.715440
0.716047
0.716653
0.717257
0.717860
0.718462
0.719062
0.719662
0.720260
0.720857
0.721452
0.722047
0.722641
0.723235
0.723827
0.724418
0.725008
0.725598
0.726187
0.726776
0.727363
0.727951
0.728538
0.729124
0.729710
0.730296
0.730881
0.731466
0.732050
0.732634
0.733219
0.733803
0.734387
0.734971
0.735555
0.736139
0.736723
0.737307
0.737890
0.738474
0.739059
0.739643
0.740228
0.740813
0.741398
0.741984
0.742571
0.743157
0.743744
0.744331
0.744918
0.745507
0.746096
0.746685
0.747275
0.747865
0.748456
0.749049
0.749641
0.750234
0.750828
0.751422
0.752017
0.752614
0.753210
0.753808
0.754406
0.755005
0.755606
0.756207
0.756809
0.757412
0.758015
0.758619
0.759225
0.759831
0.760438
0.761047
0.761655
0.762266
0.762877
0.763489
0.764102
0.764715
0.765331
0.765946
0.766563
0.767182
0.767801
0.768420
0.769041
0.769663
0.770286
0.770910
0.771534
0.772160
0.772787
0.773414
0.774043
0.774673
0.775304
0.775935
0.776568
0.777201
0.777835
0.778471
0.779108
0.779744
0.780382
0.781020
0.781661
0.782301
0.782944
0.783585
0.784228
0.784873
0.785517
0.786163
0.786809
0.787456
0.788104
0.788752
0.789402
0.790051
0.790703
0.791353
0.792006
0.792657
0.793312
0.793965
0.794620
0.795274
0.795930
0.796586
0.797242
0.797899
0.798556
0.799214
0.799872
0.800531
0.801190
0.801849
0.802509
0.803170
0.803829
0.804489
0.805149
0.805812
0.806473
0.807135
0.807795
0.808459
0.809120
0.809782
0.810444
0.811107
0.811768
0.812431
0.813092
0.813755
0.814417
0.815079
0.815740
0.816402
0.817064
0.817725
0.818386
0.819048
0.819708
0.820369
0.821028
0.821688
0.822348
0.823006
0.823665
0.824324
0.824982
0.825640
0.826296
0.826953
0.827609
0.828264
0.828919
0.829573
0.830226
0.830879
0.831532
0.832184
0.832835
0.833486
0.834135
0.834783
0.835432
0.836078
0.836725
0.837371
0.838015
0.838658
0.839302
0.839944
0.840584
0.841225
0.841864
0.842502
0.843139
0.843775
0.844408
0.845044
0.845676
0.846308
0.846938
0.847568
0.848195
0.848823
0.849448
0.850072
0.850696
0.851318
0.851940
0.852558
0.853177
0.853793
0.854408
0.855022
0.855635
0.856247
0.856857
0.857466
0.858073
0.858678
0.859283
0.859886
0.860487
0.861086
0.861686
0.862282
0.862877
0.863470
0.864063
0.864653
0.865242
0.865829
0.866415
0.866999
0.867582
0.868162
0.868741
0.869319
0.869895
0.870469
0.871042
0.871612
0.872181
0.872748
0.873315
0.873878
0.874440
0.875000
0.875559
0.876115
0.876670
0.877224
0.877775
0.878325
0.878872
0.879419
0.879963
0.880506
0.881046
0.881585
0.882122
0.882656
0.883189
0.883721
0.884250
0.884777
0.885303
0.885827
0.886349
0.886869
0.887388
0.887903
0.888417
0.888930
0.889440
0.889949
0.890455
0.890960
0.891464
0.891963
0.892463
0.892960
0.893455
0.893948
0.894439
0.894929
0.895417
0.895902
0.896385
0.896867
0.897348
0.897825
0.898300
0.898775
0.899247
0.899717
0.900184
0.900650
0.901114
0.901577
0.902037
0.902496
0.902952
0.903407
0.903859
0.904310
0.904759
0.905205
0.905651
0.906094
0.906535
0.906974
0.907411
0.907846
0.908280
0.908711
0.909140
0.909568
0.909995
0.910418
0.910840
0.911260
0.911678
0.912095
0.912509
0.912922
0.913333
0.913742
0.914149
0.914553
0.914956
0.915358
0.915758
0.916155
0.916551
0.916944
0.917338
0.917728
0.918116
0.918503
0.918889
0.919271
0.919652
0.920032
0.920410
0.920785
0.921159
0.921531
0.921902
0.922271
0.922638
0.923003
0.923366
0.923728
0.924088
0.924447
0.924803
0.925158
0.925511
0.925862
0.926212
0.926559
0.926905
0.927250
0.927592
0.927934
0.928273
0.928611
0.928947
0.929281
0.929614
0.929946
0.930274
0.930602
0.930928
0.931252
0.931575
0.931897
0.932217
0.932535
0.932851
0.933167
0.933479
0.933792
0.934102
0.934410
0.934717
0.935023
0.935326
0.935629
0.935929
0.936229
0.936527
0.936823
0.937118
0.937411
0.937703
0.937993
0.938282
0.938569
0.938856
0.939139
0.939422
0.939704
0.939984
0.940263
0.940539
0.940815
0.941089
0.941362
0.941634
0.941904
0.942173
0.942440
0.942706
0.942970
0.943233
0.943495
0.943756
0.944016
0.944273
0.944530
0.944784
0.945038
0.945290
0.945542
0.945791
0.946040
0.946286
0.946532
0.946777
0.947021
0.947263
0.947503
0.947743
0.947981
0.948219
0.948455
0.948689
0.948923
0.949154
0.949384
0.949615
0.949843
0.950069
0.950296
0.950522
0.950745
0.950967
0.951189
0.951409
0.951628
0.951846
0.952064
0.952278
0.952493
0.952707
0.952919
0.953131
0.953340
0.953549
0.953757
0.953964
0.954170
0.954374
0.954578
0.954780
0.954981
0.955181
0.955381
0.955579
0.955777
0.955972
0.956168
0.956362
0.956555
0.956747
0.956938
0.957128
0.957317
0.957505
0.957693
0.957879
0.958064
0.958248
0.958431
0.958613
0.958794
0.958975
0.959154
0.959332
0.959510
0.959687
0.959862
0.960037
0.960211
0.960384
0.960556
0.960727
0.960897
0.961067
0.961235
0.961402
0.961569
0.961735
0.961900
0.962064
0.962228
0.962390
0.962552
0.962712
0.962872
0.963031
0.963189
0.963346
0.963503
0.963659
0.963814
0.963968
0.964121
0.964274
0.964426
0.964576
0.964727
0.964876
0.965025
0.965173
0.965319
0.965466
0.965612
0.965756
0.965901
0.966044
0.966186
0.966329
0.966470
0.966610
0.966750
0.966889
0.967027
0.967164
0.967301
0.967438
0.967573
0.967708
0.967842
0.967975
0.968108
0.968240
0.968371
0.968502
0.968632
0.968761
0.968890
0.969018
0.969145
0.969272
0.969398
0.969523
0.969648
0.969772
0.969896
0.970019
0.970141
0.970263
0.970384
0.970504
0.970624
0.970743
0.970862
0.970980
0.971097
0.971214
0.971331
0.971446
0.971561
0.971676
0.971790
0.971903
0.972016
0.972128
0.972240
0.972351
0.972461
0.972571
0.972681
0.972790
0.972898
0.973006
0.973113
0.973220
0.973326
0.973432
0.973537
0.973642
0.973746
0.973850
0.973953
0.974055
0.974157
0.974259
0.974360
0.974460
0.974561
0.974660
0.974759
0.974858
0.974956
0.975054
0.975151
0.975248
0.975344
0.975440
0.975535
0.975630
0.975724
0.975818
0.975911
0.976005
0.976097
0.976189
0.976281
0.976372
0.976463
0.976553
0.976643
0.976732
0.976821
0.976910
0.976998
0.977086
0.977173
0.977260
0.977346
0.977433
0.977518
0.977604
0.977688
0.977773
0.977857
0.977940
0.978024
0.978106
0.978189
0.978271
0.978353
0.978434
0.978515
0.978595
0.978675
0.978755
0.978835
0.978914
0.978992
0.979070
0.979148
0.979226
0.979303
0.979380
0.979456
0.979532
0.979608
0.979683
0.979758
0.979833
0.979907
0.979981
0.980055
0.980128
0.980201
0.980274
0.980346
0.980418
0.980490
0.980561
0.980632
0.980702
0.980773
0.980843
0.980912
0.980982
0.981051
0.981119
0.981188
0.981256
0.981323
0.981391
0.981458
0.981525
0.981591
0.981658
0.981723
0.981789
0.981854
0.981919
0.981984
0.982049
0.982113
0.982177
0.982240
0.982303
0.982366
0.982429
0.982492
0.982554
0.982615
0.982677
0.982738
0.982799
0.982860
0.982921
0.982981
0.983041
0.983101
0.983160
0.983219
0.983278
0.983337
0.983395
0.983453
0.983511
0.983569
0.983626
0.983683
0.983740
0.983797
0.983853
0.983909
0.983965
0.984020
0.984076
0.984131
0.984186
0.984241
0.984295
0.984349
0.984403
0.984457
0.984510
0.984563
0.984616
0.984669
0.984722
0.984774
0.984826
0.984878
0.984930
0.984981
0.985032
0.985083
0.985134
0.985185
0.985235
0.985285
0.985335
0.985385
0.985434
0.985484
0.985533
0.985581
0.985630
0.985678
0.985727
0.985775
0.985823
0.985870
0.985918
0.985965
0.986012
0.986059
0.986105
0.986152
0.986198
0.986244
0.986290
0.986336
0.986381
0.986426
0.986471
0.986516
0.986561
0.986606
0.986650
0.986694
0.986738
0.986782
0.986825
0.986869
0.986912
0.986955
0.986998
0.987041
0.987083
0.987126
0.987168
0.987210
0.987252
0.987293
0.987335
0.987376
0.987417
0.987458
0.987499
0.987540
0.987580
0.987621
0.987661
0.987701
0.987741
0.987781
0.987820
0.987859
0.987898
0.987938
0.987976
0.988015
0.988054
0.988092
0.988130
0.988169
0.988207
0.988244
0.988282
0.988320
0.988357
0.988394
0.988431
0.988468
0.988505
0.988541
0.988578
0.988614
0.988650
0.988686
0.988722
0.988758
0.988794
0.988829
0.988865
0.988900
0.988935
0.988970
0.989004
0.989039
0.989074
0.989108
0.989142
0.989176
0.989210
0.989244
0.989278
0.989311
0.989345
0.989378
0.989411
0.989444
0.989477
0.989510
0.989543
0.989575
0.989608
0.989640
0.989672
0.989704
0.989736
0.989768
0.989799
0.989831
0.989862
0.989894
0.989925
0.989956
0.989987
0.990018
0.990048
0.990079
0.990109
0.990140
0.990170
0.990200
0.990230
0.990260
0.990290
0.990319
0.990349
0.990378
0.990408
0.990437
0.990466
0.990495
0.990524
0.990553
0.990581
0.990610
0.990638
0.990667
0.990695
0.990723
0.990751
0.990779
0.990807
0.990834
0.990862
0.990889
0.990917
0.990944
0.990971
0.990998
0.991025
0.991052
0.991079
0.991105
0.991132
0.991159
0.991185
0.991211
0.991237
0.991263
0.991289
0.991315
0.991341
0.991367
0.991392
0.991418
0.991443
0.991468
0.991494
0.991519
0.991544
0.991569
0.991594
0.991618
0.991643
0.991668
0.991692
0.991716
0.991741
0.991765
0.991789
0.991813
0.991837
0.991861
0.991884
0.991908
0.991932
0.991955
0.991979
0.992002
0.992025
0.992048
0.992071
0.992094
0.992117
0.992140
0.992163
0.992185
0.992208
0.992230
0.992253
0.992275
0.992297
0.992319
0.992341
0.992363
0.992385
0.992407
0.992429
0.992451
0.992472
0.992494
0.992515
0.992536
0.992558
0.992579
0.992600
0.992621
0.992642
0.992663
0.992684
0.992704
0.992725
0.992745
0.992766
0.992786
0.992807
0.992827
0.992847
0.992867
0.992887
0.992907
0.992927
0.992947
0.992967
0.992986
0.993006
0.993026
0.993045
0.993064
0.993084
0.993103
0.993122
0.993141
0.993160
0.993179
0.993198
0.993217
0.993236
0.993254
0.993273
0.993292
0.993310
0.993329
0.993347
0.993365
0.993383
0.993402
0.993420
0.993438
0.993456
0.993474
0.993491
0.993509
0.993527
0.993544
0.993562
0.993580
0.993597
0.993614
0.993632
0.993649
0.993666
0.993683
0.993700
0.993717
0.993734
0.993751
0.993768
0.993785
0.993801
0.993818
0.993834
0.993851
0.993867
0.993884
0.993900
0.993916
0.993933
0.993949
0.993965
0.993981
0.993997
0.994013
0.994029
0.994044
0.994060
0.994076
0.994091
0.994107
0.994123
0.994138
0.994153
0.994169
0.994184
0.994199
0.994214
0.994229
0.994245
0.994260
0.994274
0.994289
0.994304
0.994319
0.994334
0.994348
0.994363
0.994378
0.994392
0.994407
0.994421
0.994435
0.994450
0.994464
0.994478
0.994492
0.994506
0.994520
0.994534
0.994548
0.994562
0.994576
0.994590
0.994604
0.994617
0.994631
0.994645
0.994658
0.994672
0.994685
0.994699
0.994712
0.994725
0.994738
0.994752
0.994765
0.994778
0.994791
0.994804
0.994817
0.994830
0.994843
0.994855
0.994868
0.994880
0.994894
0.994906
0.994919
0.994932
0.994944
0.994956
0.994968
0.994981
0.994993
0.995006
0.995018
0.995030
0.995042
0.995054
0.995066
0.995078
0.995090
0.995102
0.995114
0.995126
0.995138
0.995150
0.995161
0.995173
0.995185
0.995196
0.995208
0.995219
0.995231
0.995242
0.995253
0.995265
0.995276
0.995287
0.995298
0.995309
0.995321
0.995332
0.995343
0.995354
0.995365
0.995376
0.995386
0.995397
0.995408
0.995419
0.995430
0.995440
0.995451
0.995462
0.995472
0.995483
0.995493
0.995504
0.995514
0.995524
0.995535
0.995545
0.995555
0.995565
0.995576
0.995586
0.995596
0.995606
0.995616
0.995626
0.995636
0.995646
0.995656
0.995666
0.995676
0.995685
0.995695
0.995705
0.995714
0.995724
0.995734
0.995743
0.995753
0.995762
0.995772
0.995781
0.995791
0.995800
0.995809
0.995819
0.995828
0.995837
0.995846
0.995856
0.995865
0.995874
0.995883
0.995892
0.995901
0.995910
0.995919
0.995928
0.995937
0.995946
0.995954
0.995963
0.995972
0.995981
0.995989
0.995998
0.996007
0.996015
0.996024
0.996032
0.996041
0.996049
0.996058
0.996066
0.996075
0.996083
0.996091
0.996100
0.996108
0.996116
0.996124
0.996132
0.996141
0.996149
0.996157
0.996165
0.996173
0.996181
0.996189
0.996197
0.996205
0.996213
0.996220
0.996228
0.996236
0.996244
0.996252
0.996259
0.996267
0.996275
0.996282
0.996290
0.996297
0.996305
0.996313
0.996320
0.996328
0.996335
0.996342
0.996350
0.996357
0.996365
0.996372
0.996379
0.996386
0.996394
0.996401
0.996408
0.996415
0.996422
0.996430
0.996437
0.996444
0.996451
0.996458
0.996465
0.996472
0.996479
0.996486
0.996492
0.996499
0.996506
0.996513
0.996520
0.996527
0.996533
0.996540
0.996547
0.996553
0.996560
0.996567
0.996573
0.996580
0.996586
0.996593
0.996599
0.996606
0.996612
0.996619
0.996625
0.996632
0.996638
0.996644
0.996651
0.996657
0.996663
0.996670
0.996676
0.996682
0.996688
0.996695
0.996701
0.996707
0.996713
0.996719
0.996725
0.996731
0.996737
0.996743
0.996749
0.996755
0.996761
0.996767
0.996773
0.996779
0.996785
0.996791
0.996796
0.996802
0.996808
0.996814
0.996819
0.996825
0.996831
0.996837
0.996842
0.996848
0.996854
0.996859
0.996865
0.996870
0.996876
0.996881
0.996887
0.996892
0.996898
0.996903
0.996909
0.996914
0.996920
0.996925
0.996930
0.996936
0.996941
0.996946
0.996952
0.996957
0.996962
0.996967
0.996973
0.996978
0.996983
0.996988
0.996993
0.996998
0.997004
0.997009
0.997014
0.997019
0.997024
0.997029
0.997034
0.997039
0.997044
0.997049
0.997054
0.997059
0.997064
0.997069
0.997073
0.997078
0.997083
0.997088
0.997093
0.997097
0.997102
0.997107
0.997112
0.997117
0.997121
0.997126
0.997131
0.997135
0.997140
0.997145
0.997149
0.997154
0.997158
0.997163
0.997167
0.997172
0.997177
0.997181
0.997186
0.997190
0.997195
0.997199
0.997203
0.997208
0.997212
0.997217
0.997221
0.997225
0.997230
0.997234
0.997238
0.997243
0.997247
0.997251
0.997256
0.997260
0.997264
0.997268
0.997272
0.997277
0.997281
0.997285
0.997289
0.997293
0.997297
0.997301
0.997306
0.997310
0.997314
0.997318
0.997322
0.997326
0.997330
0.997334
0.997338
0.997342
0.997346
0.997350
0.997354
0.997358
0.997361
0.997365
0.997369
0.997373
0.997377
0.997381
0.997385
0.997389
0.997392
0.997396
0.997400
0.997404
0.997407
0.997411
0.997415
0.997419
0.997422
0.997426
0.997430
0.997433
0.997437
0.997441
0.997444
0.997448
0.997452
0.997455
0.997459
0.997462
0.997466
0.997470
0.997473
0.997477
0.997480
0.997484
0.997487
0.997491
0.997494
0.997498
0.997501
0.997504
0.997508
0.997511
0.997515
0.997518
0.997522
0.997525
0.997528
0.997532
0.997535
0.997538
0.997542
0.997545
0.997548
0.997552
0.997555
0.997558
0.997561
0.997565
0.997568
0.997571
0.997574
0.997578
0.997581
0.997584
0.997587
0.997590
0.997593
0.997597
0.997600
0.997603
0.997606
0.997609
0.997612
0.997615
0.997618
0.997621
0.997624
0.997628
0.997631
0.997634
0.997637
0.997640
0.997643
0.997646
0.997649
0.997652
0.997655
0.997658
0.997660
0.997663
0.997666
0.997669
0.997672
0.997675
0.997678
0.997681
0.997684
0.997687
0.997689
0.997692
0.997695
0.997698
0.997701
0.997704
0.997706
0.997709
0.997712
0.997715
0.997717
0.997720
0.997723
0.997726
0.997728
0.997731
0.997734
0.997737
0.997739
0.997742
0.997745
0.997747
0.997750
0.997753
0.997755
0.997758
0.997761
0.997763
0.997766
0.997769
0.997771
0.997774
0.997776
0.997779
0.997781
0.997784
0.997787
0.997789
0.997792
0.997794
0.997797
0.997799
0.997802
0.997804
0.997807
0.997809
0.997812
0.997814
0.997817
0.997819
0.997822
0.997824
0.997826
0.997829
0.997831
0.997834
0.997836
0.997838
0.997841
0.997843
0.997846
0.997848
0.997850
0.997853
0.997855
0.997857
0.997860
0.997862
0.997864
0.997867
0.997869
0.997871
0.997874
0.997876
0.997878
0.997880
0.997883
0.997885
0.997887
0.997889
0.997892
0.997894
0.997896
0.997898
0.997901
0.997903
0.997905
0.997907
0.997909
0.997912
0.997914
0.997916
0.997918
0.997920
0.997922
0.997924
0.997927
0.997929
0.997931
0.997933
0.997935
0.997937
0.997939
0.997941
0.997943
0.997945
0.997948
0.997950
0.997952
0.997954
0.997956
0.997958
0.997960
0.997962
0.997964
0.997966
0.997968
0.997970
0.997972
0.997974
0.997976
0.997978
0.997980
0.997982
0.997984
0.997986
0.997988
0.997990
0.997992
0.997994
0.997995
0.997997
0.997999
0.998001
0.998003
0.998005
0.998007
0.998009
0.998011
0.998013
0.998014
0.998016
0.998018
0.998020
0.998022
0.998024
0.998026
0.998027
0.998029
0.998031
0.998033
0.998035
0.998037
0.998038
0.998040
0.998042
0.998044
0.998046
0.998047
0.998049
0.998051
0.998053
0.998054
0.998056
0.998058
0.998060
0.998061
0.998063
0.998065
0.998067
0.998068
0.998070
0.998072
0.998073
0.998075
0.998077
0.998079
0.998080
0.998082
0.998084
0.998085
0.998087
0.998089
0.998090
0.998092
0.998094
0.998095
0.998097
0.998098
0.998100
0.998102
0.998103
0.998105
0.998107
0.998108
0.998110
0.998111
0.998113
0.998115
0.998116
0.998118
0.998119
0.998121
0.998122
0.998124
0.998126
0.998127
0.998129
0.998130
0.998132
0.998133
0.998135
0.998136
0.998138
0.998139
0.998141
0.998142
0.998144
0.998146
0.998147
0.998149
0.998150
0.998151
0.998153
0.998154
0.998156
0.998157
0.998159
0.998160
0.998162
0.998163
0.998165
0.998166
0.998168
0.998169
0.998170
0.998172
0.998173
0.998175
0.998176
0.998178
0.998179
0.998180
0.998182
0.998183
0.998185
0.998186
0.998187
0.998189
0.998190
0.998192
0.998193
0.998194
0.998196
0.998197
0.998198
0.998200
0.998201
0.998202
0.998204
0.998205
0.998206
0.998208
0.998209
0.998210
0.998212
0.998213
0.998214
0.998216
0.998217
0.998218
0.998220
0.998221
0.998222
0.998224
0.998225
0.998226
0.998227
0.998229
0.998230
0.998231
0.998232
0.998234
0.998235
0.998236
0.998237
0.998239
0.998240
0.998241
0.998242
0.998244
0.998245
0.998246
0.998247
0.998249
0.998250
0.998251
0.998252
0.998254
0.998255
0.998256
0.998257
0.998258
0.998260
0.998261
0.998262
0.998263
0.998264
0.998266
0.998267
0.998268
0.998269
0.998270
0.998271
0.998272
0.998274
0.998275
0.998276
0.998277
0.998278
0.998279
0.998281
0.998282
0.998283
0.998284
0.998285
0.998286
0.998287
0.998288
0.998290
0.998291
0.998292
0.998293
0.998294
0.998295
0.998296
0.998297
0.998298
0.998300
0.998301
0.998302
0.998303
0.998304
0.998305
0.998306
0.998307
0.998308
0.998309
0.998310
0.998311
0.998312
0.998313
0.998315
0.998316
0.998317
0.998318
0.998319
0.998320
0.998321
0.998322
0.998323
0.998324
0.998325
0.998326
0.998327
0.998328
0.998329
0.998330
0.998331
0.998332
0.998333
0.998334
0.998335
0.998336
0.998337
0.998338
0.998339
0.998340
0.998341
0.998342
0.998343
0.998344
0.998345
0.998346
0.998347
0.998348
0.998349
0.998350
0.998351
0.998352
0.998353
0.998354
0.998355
0.998356
0.998356
0.998357
0.998358
0.998359
0.998360
0.998361
0.998362
0.998363
0.998364
0.998365
0.998366
0.998367
0.998368
0.998369
0.998370
0.998370
0.998371
0.998372
0.998373
0.998374
0.998375
0.998376
0.998377
0.998378
0.998379
0.998379
0.998380
0.998381
0.998382
0.998383
0.998384
0.998385
0.998386
0.998387
0.998387
0.998388
0.998389
0.998390
0.998391
0.998392
0.998393
0.998393
0.998394
0.998395
0.998396
0.998397
0.998398
0.998398
0.998399
0.998400
0.998401
0.998402
0.998403
0.998403
0.998404
0.998405
0.998406
0.998407
0.998408
0.998408
0.998409
0.998410
0.998411
0.998412
0.998413
0.998413
0.998414
0.998415
0.998416
0.998417
0.998417
0.998418
0.998419
0.998420
0.998421
0.998421
0.998422
0.998423
0.998424
0.998424
0.998425
0.998426
0.998427
0.998428
0.998428
0.998429
0.998430
0.998431
0.998431
0.998432
0.998433
0.998434
0.998434
0.998435
0.998436
0.998437
0.998437
0.998438
0.998439
0.998440
0.998440
0.998441
0.998442
0.998443
0.998443
0.998444
0.998445
0.998446
0.998446
0.998447
0.998448
0.998448
0.998449
0.998450
0.998451
0.998451
0.998452
0.998453
0.998454
0.998454
0.998455
0.998456
0.998456
0.998457
0.998458
0.998458
0.998459
0.998460
0.998461
0.998461
0.998462
0.998463
0.998463
0.998464
0.998465
0.998465
0.998466
0.998467
0.998467
0.998468
0.998469
0.998469
0.998470
0.998471
0.998471
0.998472
0.998473
0.998474
0.998474
0.998475
0.998475
0.998476
0.998477
0.998477
0.998478
0.998479
0.998479
0.998480
0.998481
0.998481
0.998482
0.998483
0.998483
0.998484
0.998485
0.998485
0.998486
0.998487
0.998487
0.998488
0.998488
0.998489
0.998490
0.998490
0.998491
0.998492
0.998492
0.998493
0.998493
0.998494
0.998495
0.998495
0.998496
0.998496
0.998497
0.998498
0.998498
0.998499
0.998500
0.998500
0.998501
0.998501
0.998502
0.998503
0.998503
0.998504
0.998504
0.998505
0.998506
0.998506
0.998507
0.998507
0.998508
0.998509
0.998509
0.998510
0.998510
0.998511
0.998511
0.998512
0.998513
0.998513
0.998514
0.998514
0.998515
