0.812270
0.814270
0.816270
0.818270
0.820270
0.822270
0.824270
0.826270
0.828270
0.830270
0.832270
0.834270
0.836270
0.838270
0.840270
0.842270
0.844270
0.846270
0.848270
0.850270
0.852270
0.854270
0.856270
0.858270
0.860270
0.862270
0.864270
0.866270
0.868270
0.870270
0.872270
0.874270
0.876270
0.878270
0.880270
0.882270
0.884270
0.886270
0.888270
0.890270
0.892270
0.894270
0.896270
0.898270
0.900270
0.902270
0.904270
0.906270
0.908270
0.910270
0.912270
0.914270
0.916270
0.918270
0.920270
0.922270
0.924270
0.926270
0.928270
0.930270
0.932270
0.934270
0.936270
0.938270
0.940270
0.942270
0.944270
0.946270
0.948270
0.950270
0.952270
0.954270
0.956270
0.958270
0.960270
0.962270
0.964270
0.966270
0.968270
0.970270
0.972270
0.974270
0.976270
0.978270
0.980270
0.982270
0.984270
0.986270
0.988270
0.990270
0.992270
0.994270
0.996270
0.998270
1.000270
1.002270
1.004270
1.006270
1.008270
1.010270
1.012270
1.014270
1.016270
1.018270
1.020270
1.022270
1.024270
1.026270
1.028270
1.030270
1.032270
1.034270
1.036270
1.038270
1.040270
1.042270
1.044270
1.046270
1.048270
1.050270
1.052270
1.054270
1.056270
1.058270
1.060270
1.062270
1.064270
1.066270
1.068270
1.070270
1.072270
1.074270
1.076270
1.078270
1.080270
1.082270
1.084270
1.086270
1.088270
1.090270
1.092270
1.094270
1.096270
1.098270
1.100270
1.102270
1.104270
1.106270
1.108270
1.110270
1.112270
1.114270
1.116270
1.118270
1.120270
1.122270
1.124270
1.126270
1.128270
1.130270
1.132270
1.134270
1.136270
1.138270
1.140270
1.142270
1.144270
1.146270
1.148270
1.150270
1.152270
1.154270
1.156270
1.158270
1.160270
1.162270
1.164270
1.166270
1.168270
1.170270
1.172270
1.174270
1.176270
1.178270
1.180270
1.182270
1.184270
1.186270
1.188270
1.190270
1.192270
1.194270
1.196270
1.198270
1.200270
1.202270
1.204270
1.206270
1.208270
1.210270
1.212270
1.214270
1.216270
1.218270
1.220270
1.222270
1.224270
1.226270
1.228270
1.230270
1.232270
1.234270
1.236270
1.238270
1.240270
1.242270
1.244270
1.246270
1.248270
1.250270
1.252270
1.254270
1.256270
1.258270
1.260270
1.262270
1.264270
1.266270
1.268270
1.270270
1.272270
1.274270
1.276270
1.278270
1.280270
1.282270
1.284270
1.286270
1.288270
1.290270
1.292270
1.294270
1.296270
1.298270
1.300270
1.302270
1.304270
1.306270
1.308270
1.310270
1.312270
1.314270
1.316270
1.318270
1.320270
1.322270
1.324270
1.326270
1.328270
1.330270
1.332270
1.334270
1.336270
1.338270
1.340270
1.342270
1.344270
1.346270
1.348270
1.350270
1.352270
1.354270
1.356270
1.358270
1.360270
1.362270
1.364270
1.366270
1.368270
1.370270
1.372270
1.374270
1.376270
1.378270
1.380270
1.382270
1.384270
1.386270
1.388270
1.390270
1.392270
1.394270
1.396270
1.398270
1.400270
1.402270
1.404270
1.406270
1.408270
1.410270
1.412270
1.414270
1.416270
1.418270
1.420270
1.422270
1.424270
1.426270
1.428270
1.430270
1.432270
1.434270
1.436270
1.438270
1.440270
1.442270
1.444270
1.446270
1.448270
1.450270
1.452270
1.454270
1.456270
1.458270
1.460270
1.462270
1.464270
1.466270
1.468270
1.470270
1.472270
1.474270
1.476270
1.478270
1.480270
1.482270
1.484270
1.486270
1.488270
1.490270
1.492270
1.494270
1.496270
1.498270
1.500270
1.502270
1.504270
1.506270
1.508270
1.510270
1.512270
1.514270
1.516270
1.518270
1.520270
1.522270
1.524270
1.526270
1.528270
1.530270
1.532270
1.534270
1.536270
1.538270
1.540270
1.542270
1.544270
1.546270
1.548270
1.550270
1.552270
1.554270
1.556270
1.558270
1.560270
1.562270
1.564270
1.566270
1.568270
1.570270
1.572270
1.574270
1.576270
1.578270
1.580270
1.582270
1.584270
1.586270
1.588270
1.590270
1.592270
1.594270
1.596270
1.598270
1.600270
1.602270
1.604270
1.606270
1.608270
1.610270
1.612270
1.614270
1.616270
1.618270
1.620270
1.622270
1.624270
1.626270
1.628270
1.630270
1.632270
1.634270
1.636270
1.638270
1.640270
1.642270
1.644270
1.646270
1.648270
1.650270
1.652270
1.654270
1.656270
1.658270
1.660270
1.662270
1.664270
1.666270
1.668270
1.670270
1.672270
1.674270
1.676270
1.678270
1.680270
1.682270
1.684270
1.686270
1.688270
1.690270
1.692270
1.694270
1.696270
1.698270
1.700270
1.702270
1.704270
1.706270
1.708270
1.710270
1.712270
1.714270
1.716270
1.718270
1.720270
1.722270
1.724270
1.726270
1.728270
1.730270
1.732270
1.734270
1.736270
1.738270
1.740270
1.742270
1.744270
1.746270
1.748270
1.750270
1.752270
1.754270
1.756270
1.758270
1.760270
1.762270
1.764270
1.766270
1.768270
1.770270
1.772270
1.774270
1.776270
1.778270
1.780270
1.782270
1.784270
1.786270
1.788270
1.790270
1.792270
1.794270
1.796270
1.798270
1.800270
1.802270
1.804270
1.806270
1.808270
1.810270
1.812270
1.814270
1.816270
1.818270
1.820270
1.822270
1.824270
1.826270
1.828270
1.830270
1.832270
1.834270
1.836270
1.838270
1.840270
1.842270
1.844270
1.846270
1.848270
1.850270
1.852270
1.854270
1.856270
1.858270
1.860270
1.862270
1.864270
1.866270
1.868270
1.870270
1.872270
1.874270
1.876270
1.878270
1.880270
1.882270
1.884270
1.886270
1.888270
1.890270
1.892270
1.894270
1.896270
1.898270
1.900270
1.902270
1.904270
1.906270
1.908270
1.910270
1.912270
1.914270
1.916270
1.918270
1.920270
1.922270
1.924270
1.926270
1.928270
1.930270
1.932270
1.934270
1.936270
1.938270
1.940270
1.942270
1.944270
1.946270
1.948270
1.950270
1.952270
1.954270
1.956270
1.958270
1.960270
1.962270
1.964270
1.966270
1.968270
1.970270
1.972270
1.974270
1.976270
1.978270
1.980270
1.982270
1.984270
1.986270
1.988270
1.990270
1.992270
1.994270
1.996270
1.998270
2.000270
2.002270
2.004270
2.006270
2.008270
2.010270
2.012270
2.014270
2.016270
2.018270
2.020270
2.022270
2.024270
2.026270
2.028270
2.030270
2.032270
2.034270
2.036270
2.038270
2.040270
2.042270
2.044270
2.046270
2.048270
2.050270
2.052270
2.054270
2.056270
2.058270
2.060270
2.062270
2.064270
2.066270
2.068270
2.070270
2.072270
2.074270
2.076270
2.078270
2.080270
2.082270
2.084270
2.086270
2.088270
2.090270
2.092270
2.094270
2.096270
2.098270
2.100270
2.102270
2.104270
2.106270
2.108270
2.110270
2.112270
2.114270
2.116270
2.118270
2.120270
2.122270
2.124270
2.126270
2.128270
2.130270
2.132270
2.134270
2.136270
2.138270
2.140270
2.142270
2.144270
2.146270
2.148270
2.150270
2.152270
2.154270
2.156270
2.158270
2.160270
2.162270
2.164270
2.166270
2.168270
2.170270
2.172270
2.174270
2.176270
2.178270
2.180270
2.182270
2.184270
2.186270
2.188270
2.190270
2.192270
2.194270
2.196270
2.198270
2.200270
2.202270
2.204270
2.206270
2.208270
2.210270
2.212270
2.214270
2.216270
2.218270
2.220270
2.222270
2.224270
2.226270
2.228270
2.230270
2.232270
2.234270
2.236270
2.238270
2.240270
2.242270
2.244270
2.246270
2.248270
2.250270
2.252270
2.254270
2.256270
2.258270
2.260270
2.262270
2.264270
2.266270
2.268270
2.270270
2.272270
2.274270
2.276270
2.278270
2.280270
2.282270
2.284270
2.286270
2.288270
2.290270
2.292270
2.294270
2.296270
2.298270
2.300270
2.302270
2.304270
2.306270
2.308270
2.310270
2.312270
2.314270
2.316270
2.318270
2.320270
2.322270
2.324270
2.326270
2.328270
2.330270
2.332270
2.334270
2.336270
2.338270
2.340270
2.342270
2.344270
2.346270
2.348270
2.350270
2.352270
2.354270
2.356270
2.358270
2.360270
2.362270
2.364270
2.366270
2.368270
2.370270
2.372270
2.374270
2.376270
2.378270
2.380270
2.382270
2.384270
2.386270
2.388270
2.390270
2.392270
2.394270
2.396270
2.398270
2.400270
2.402270
2.404270
2.406270
2.408270
2.410270
2.412270
2.414270
2.416270
2.418270
2.420270
2.422270
2.424270
2.426270
2.428270
2.430270
2.432270
2.434270
2.436270
2.438270
2.440270
2.442270
2.444270
2.446270
2.448270
2.450270
2.452270
2.454270
2.456270
2.458270
2.460270
2.462270
2.464270
2.466270
2.468270
2.470270
2.472270
2.474270
2.476270
2.478270
2.480270
2.482270
2.484270
2.486270
2.488270
2.490270
2.492270
2.494270
2.496270
2.498270
2.500270
2.502270
2.504270
2.506270
2.508270
2.510270
2.512270
2.514270
2.516270
2.518270
2.520270
2.522270
2.524270
2.526270
2.528270
2.530270
2.532270
2.534270
2.536270
2.538270
2.540270
2.542270
2.544270
2.546270
2.548270
2.550270
2.552270
2.554270
2.556270
2.558270
2.560270
2.562270
2.564270
2.566270
2.568270
2.570270
2.572270
2.574270
2.576270
2.578270
2.580270
2.582270
2.584270
2.586270
2.588270
2.590270
2.592270
2.594270
2.596270
2.598270
2.600270
2.602270
2.604270
2.606270
2.608270
2.610270
2.612270
2.614270
2.616270
2.618270
2.620270
2.622270
2.624270
2.626270
2.628270
2.630270
2.632270
2.634270
2.636270
2.638270
2.640270
2.642270
2.644270
2.646270
2.648270
2.650270
2.652270
2.654270
2.656270
2.658270
2.660270
2.662270
2.664270
2.666270
2.668270
2.670270
2.672270
2.674270
2.676270
2.678270
2.680270
2.682270
2.684270
2.686270
2.688270
2.690270
2.692270
2.694270
2.696270
2.698270
2.700270
2.702270
2.704270
2.706270
2.708270
2.710270
2.712270
2.714270
2.716270
2.718270
2.720270
2.722270
2.724270
2.726270
2.728270
2.730270
2.732270
2.734270
2.736270
2.738270
2.740270
2.742270
2.744270
2.746270
2.748270
2.750270
2.752270
2.754270
2.756270
2.758270
2.760270
2.762270
2.764270
2.766270
2.768270
2.770270
2.772270
2.774270
2.776270
2.778270
2.780270
2.782270
2.784270
2.786270
2.788270
2.790270
2.792270
2.794270
2.796270
2.798270
2.800270
2.802270
2.804270
2.806270
2.808270
2.810270
2.812270
2.814270
2.816270
2.818270
2.820270
2.822270
2.824270
2.826270
2.828270
2.830270
2.832270
2.834270
2.836270
2.838270
2.840270
2.842270
2.844270
2.846270
2.848270
2.850270
2.852270
2.854270
2.856270
2.858270
2.860270
2.862270
2.864270
2.866270
2.868270
2.870270
2.872270
2.874270
2.876270
2.878270
2.880270
2.882270
2.884270
2.886270
2.888270
2.890270
2.892270
2.894270
2.896270
2.898270
2.900270
2.902270
2.904270
2.906270
2.908270
2.910270
2.912270
2.914270
2.916270
2.918270
2.920270
2.922270
2.924270
2.926270
2.928270
2.930270
2.932270
2.934270
2.936270
2.938270
2.940270
2.942270
2.944270
2.946270
2.948270
2.950270
2.952270
2.954270
2.956270
2.958270
2.960270
2.962270
2.964270
2.966270
2.968270
2.970270
2.972270
2.974270
2.976270
2.978270
2.980270
2.982270
2.984270
2.986270
2.988270
2.990270
2.992270
2.994270
2.996270
2.998270
3.000270
3.002270
3.004270
3.006270
3.008270
3.010270
3.012270
3.014270
3.016270
3.018270
3.020270
3.022270
3.024270
3.026270
3.028270
3.030270
3.032270
3.034270
3.036270
3.038270
3.040270
3.042270
3.044270
3.046270
3.048270
3.050270
3.052270
3.054270
3.056270
3.058270
3.060270
3.062270
3.064270
3.066270
3.068270
3.070270
3.072270
3.074270
3.076270
3.078270
3.080270
3.082270
3.084270
3.086270
3.088270
3.090270
3.092270
3.094270
3.096270
3.098270
3.100270
3.102270
3.104270
3.106270
3.108270
3.110270
3.112270
3.114270
3.116270
3.118270
3.120270
3.122270
3.124270
3.126270
3.128270
3.130270
3.132270
3.134270
3.136270
3.138270
3.140270
3.142270
3.144270
3.146270
3.148270
3.150270
3.152270
3.154270
3.156270
3.158270
3.160270
3.162270
3.164270
3.166270
3.168270
3.170270
3.172270
3.174270
3.176270
3.178270
3.180270
3.182270
3.184270
3.186270
3.188270
3.190270
3.192270
3.194270
3.196270
3.198270
3.200270
3.202270
3.204270
3.206270
3.208270
3.210270
3.212270
3.214270
3.216270
3.218270
3.220270
3.222270
3.224270
3.226270
3.228270
3.230270
3.232270
3.234270
3.236270
3.238270
3.240270
3.242270
3.244270
3.246270
3.248270
3.250270
3.252270
3.254270
3.256270
3.258270
3.260270
3.262270
3.264270
3.266270
3.268270
3.270270
3.272270
3.274270
3.276270
3.278270
3.280270
3.282270
3.284270
3.286270
3.288270
3.290270
3.292270
3.294270
3.296270
3.298270
3.300270
3.302270
3.304270
3.306270
3.308270
3.310270
3.312270
3.314270
3.316270
3.318270
3.320270
3.322270
3.324270
3.326270
3.328270
3.330270
3.332270
3.334270
3.336270
3.338270
3.340270
3.342270
3.344270
3.346270
3.348270
3.350270
3.352270
3.354270
3.356270
3.358270
3.360270
3.362270
3.364270
3.366270
3.368270
3.370270
3.372270
3.374270
3.376270
3.378270
3.380270
3.382270
3.384270
3.386270
3.388270
3.390270
3.392270
3.394270
3.396270
3.398270
3.400270
3.402270
3.404270
3.406270
3.408270
3.410270
3.412270
3.414270
3.416270
3.418270
3.420270
3.422270
3.424270
3.426270
3.428270
3.430270
3.432270
3.434270
3.436270
3.438270
3.440270
3.442270
3.444270
3.446270
3.448270
3.450270
3.452270
3.454270
3.456270
3.458270
3.460270
3.462270
3.464270
3.466270
3.468270
3.470270
3.472270
3.474270
3.476270
3.478270
3.480270
3.482270
3.484270
3.486270
3.488270
3.490270
3.492270
3.494270
3.496270
3.498270
3.500270
3.502270
3.504270
3.506270
3.508270
3.510270
3.512270
3.514270
3.516270
3.518270
3.520270
3.522270
3.524270
3.526270
3.528270
3.530270
3.532270
3.534270
3.536270
3.538270
3.540270
3.542270
3.544270
3.546270
3.548270
3.550270
3.552270
3.554270
3.556270
3.558270
3.560270
3.562270
3.564270
3.566270
3.568270
3.570270
3.572270
3.574270
3.576270
3.578270
3.580270
3.582270
3.584270
3.586270
3.588270
3.590270
3.592270
3.594270
3.596270
3.598270
3.600270
3.602270
3.604270
3.606270
3.608270
3.610270
3.612270
3.614270
3.616270
3.618270
3.620270
3.622270
3.624270
3.626270
3.628270
3.630270
3.632270
3.634270
3.636270
3.638270
3.640270
3.642270
3.644270
3.646270
3.648270
3.650270
3.652270
3.654270
3.656270
3.658270
3.660270
3.662270
3.664270
3.666270
3.668270
3.670270
3.672270
3.674270
3.676270
3.678270
3.680270
3.682270
3.684270
3.686270
3.688270
3.690270
3.692270
3.694270
3.696270
3.698270
3.700270
3.702270
3.704270
3.706270
3.708270
3.710270
3.712270
3.714270
3.716270
3.718270
3.720270
3.722270
3.724270
3.726270
3.728270
3.730270
3.732270
3.734270
3.736270
3.738270
3.740270
3.742270
3.744270
3.746270
3.748270
3.750270
3.752270
3.754270
3.756270
3.758270
3.760270
3.762270
3.764270
3.766270
3.768270
3.770270
3.772270
3.774270
3.776270
3.778270
3.780270
3.782270
3.784270
3.786270
3.788270
3.790270
3.792270
3.794270
3.796270
3.798270
3.800270
3.802270
3.804270
3.806270
3.808270
3.810270
3.812270
3.814270
3.816270
3.818270
3.820270
3.822270
3.824270
3.826270
3.828270
3.830270
3.832270
3.834270
3.836270
3.838270
3.840270
3.842270
3.844270
3.846270
3.848270
3.850270
3.852270
3.854270
3.856270
3.858270
3.860270
3.862270
3.864270
3.866270
3.868270
3.870270
3.872270
3.874270
3.876270
3.878270
3.880270
3.882270
3.884270
3.886270
3.888270
3.890270
3.892270
3.894270
3.896270
3.898270
3.900270
3.902270
3.904270
3.906270
3.908270
3.910270
3.912270
3.914270
3.916270
3.918270
3.920270
3.922270
3.924270
3.926270
3.928270
3.930270
3.932270
3.934270
3.936270
3.938270
3.940270
3.942270
3.944270
3.946270
3.948270
3.950270
3.952270
3.954270
3.956270
3.958270
3.960270
3.962270
3.964270
3.966270
3.968270
3.970270
3.972270
3.974270
3.976270
3.978270
3.980270
3.982270
3.984270
3.986270
3.988270
3.990270
3.992270
3.994270
3.996270
3.998270
4.000270
4.002270
4.004270
4.006270
4.008270
4.010270
4.012270
4.014270
4.016270
4.018270
4.020270
4.022270
4.024270
4.026270
4.028270
4.030270
4.032270
4.034270
4.036270
4.038270
4.040270
4.042270
4.044270
4.046270
4.048270
4.050270
4.052270
4.054270
4.056270
4.058270
4.060270
4.062270
4.064270
4.066270
4.068270
4.070270
4.072270
4.074270
4.076270
4.078270
4.080270
4.082270
4.084270
4.086270
4.088270
4.090270
4.092270
4.094270
4.096270
4.098270
4.100270
4.102270
4.104270
4.106270
4.108270
4.110270
4.112270
4.114270
4.116270
4.118270
4.120270
4.122270
4.124270
4.126270
4.128270
4.130270
4.132270
4.134270
4.136270
4.138270
4.140270
4.142270
4.144270
4.146270
4.148270
4.150270
4.152270
4.154270
4.156270
4.158270
4.160270
4.162270
4.164270
4.166270
4.168270
4.170270
4.172270
4.174270
4.176270
4.178270
4.180270
4.182270
4.184270
4.186270
4.188270
4.190270
4.192270
4.194270
4.196270
4.198270
4.200270
4.202270
4.204270
4.206270
4.208270
4.210270
4.212270
4.214270
4.216270
4.218270
4.220270
4.222270
4.224270
4.226270
4.228270
4.230270
4.232270
4.234270
4.236270
4.238270
4.240270
4.242270
4.244270
4.246270
4.248270
4.250270
4.252270
4.254270
4.256270
4.258270
4.260270
4.262270
4.264270
4.266270
4.268270
4.270270
4.272270
4.274270
4.276270
4.278270
4.280270
4.282270
4.284270
4.286270
4.288270
4.290270
4.292270
4.294270
4.296270
4.298270
4.300270
4.302270
4.304270
4.306270
4.308270
4.310270
4.312270
4.314270
4.316270
4.318270
4.320270
4.322270
4.324270
4.326270
4.328270
4.330270
4.332270
4.334270
4.336270
4.338270
4.340270
4.342270
4.344270
4.346270
4.348270
4.350270
4.352270
4.354270
4.356270
4.358270
4.360270
4.362270
4.364270
4.366270
4.368270
4.370270
4.372270
4.374270
4.376270
4.378270
4.380270
4.382270
4.384270
4.386270
4.388270
4.390270
4.392270
4.394270
4.396270
4.398270
4.400270
4.402270
4.404270
4.406270
4.408270
4.410270
4.412270
4.414270
4.416270
4.418270
4.420270
4.422270
4.424270
4.426270
4.428270
4.430270
4.432270
4.434270
4.436270
4.438270
4.440270
4.442270
4.444270
4.446270
4.448270
4.450270
4.452270
4.454270
4.456270
4.458270
4.460270
4.462270
4.464270
4.466270
4.468270
4.470270
4.472270
4.474270
4.476270
4.478270
4.480270
4.482270
4.484270
4.486270
4.488270
4.490270
4.492270
4.494270
4.496270
4.498270
4.500270
4.502270
4.504270
4.506270
4.508270
4.510270
4.512270
4.514270
4.516270
4.518270
4.520270
4.522270
4.524270
4.526270
4.528270
4.530270
4.532270
4.534270
4.536270
4.538270
4.540270
4.542270
4.544270
4.546270
4.548270
4.550270
4.552270
4.554270
4.556270
4.558270
4.560270
4.562270
4.564270
4.566270
4.568270
4.570270
4.572270
4.574270
4.576270
4.578270
4.580270
4.582270
4.584270
4.586270
4.588270
4.590270
4.592270
4.594270
4.596270
4.598270
4.600270
4.602270
4.604270
4.606270
4.608270
4.610270
4.612270
4.614270
4.616270
4.618270
4.620270
4.622270
4.624270
4.626270
4.628270
4.630270
4.632270
4.634270
4.636270
4.638270
4.640270
4.642270
4.644270
4.646270
4.648270
4.650270
4.652270
4.654270
4.656270
4.658270
4.660270
4.662270
4.664270
4.666270
4.668270
4.670270
4.672270
4.674270
4.676270
4.678270
4.680270
4.682270
4.684270
4.686270
4.688270
4.690270
4.692270
4.694270
4.696270
4.698270
4.700270
4.702270
4.704270
4.706270
4.708270
4.710270
4.712270
4.714270
4.716270
4.718270
4.720270
4.722270
4.724270
4.726270
4.728270
4.730270
4.732270
4.734270
4.736270
4.738270
4.740270
4.742270
4.744270
4.746270
4.748270
4.750270
4.752270
4.754270
4.756270
4.758270
4.760270
4.762270
4.764270
4.766270
4.768270
4.770270
4.772270
4.774270
4.776270
4.778270
4.780270
4.782270
4.784270
4.786270
4.788270
4.790270
4.792270
4.794270
4.796270
4.798270
4.800270
4.802270
4.804270
4.806270
4.808270
4.810270
4.812270
4.814270
4.816270
4.818270
4.820270
4.822270
4.824270
4.826270
4.828270
4.830270
4.832270
4.834270
4.836270
4.838270
4.840270
4.842270
4.844270
4.846270
4.848270
4.850270
4.852270
4.854270
4.856270
4.858270
4.860270
4.862270
4.864270
4.866270
4.868270
4.870270
4.872270
4.874270
4.876270
4.878270
4.880270
4.882270
4.884270
4.886270
4.888270
4.890270
4.892270
4.894270
4.896270
4.898270
4.900270
4.902270
4.904270
4.906270
4.908270
4.910270
4.912270
4.914270
4.916270
4.918270
4.920270
4.922270
4.924270
4.926270
4.928270
4.930270
4.932270
4.934270
4.936270
4.938270
4.940270
4.942270
4.944270
4.946270
4.948270
4.950270
4.952270
4.954270
4.956270
4.958270
4.960270
4.962270
4.964270
4.966270
4.968270
4.970270
4.972270
4.974270
4.976270
4.978270
4.980270
4.982270
4.984270
4.986270
4.988270
4.990270
4.992270
4.994270
4.996270
4.998270
5.000270
5.002270
5.004270
5.006270
5.008270
5.010270
5.012270
5.014270
5.016270
5.018270
5.020270
5.022270
5.024270
5.026270
5.028270
5.030270
5.032270
5.034270
5.036270
5.038270
5.040270
5.042270
5.044270
5.046270
5.048270
5.050270
5.052270
5.054270
5.056270
5.058270
5.060270
5.062270
5.064270
5.066270
5.068270
5.070270
5.072270
5.074270
5.076270
5.078270
5.080270
5.082270
5.084270
5.086270
5.088270
5.090270
5.092270
5.094270
5.096270
5.098270
5.100270
5.102270
5.104270
5.106270
5.108270
5.110270
5.112270
5.114270
5.116270
5.118270
5.120270
5.122270
5.124270
5.126270
5.128270
5.130270
5.132270
5.134270
5.136270
5.138270
5.140270
5.142270
5.144270
5.146270
5.148270
5.150270
5.152270
5.154270
5.156270
5.158270
5.160270
5.162270
5.164270
5.166270
5.168270
5.170270
5.172270
5.174270
5.176270
5.178270
5.180270
5.182270
5.184270
5.186270
5.188270
5.190270
5.192270
5.194270
5.196270
5.198270
5.200270
5.202270
5.204270
5.206270
5.208270
5.210270
5.212270
5.214270
5.216270
5.218270
5.220270
5.222270
5.224270
5.226270
5.228270
5.230270
5.232270
5.234270
5.236270
5.238270
5.240270
5.242270
5.244270
5.246270
5.248270
5.250270
5.252270
5.254270
5.256270
5.258270
5.260270
5.262270
5.264270
5.266270
5.268270
5.270270
5.272270
5.274270
5.276270
5.278270
5.280270
5.282270
5.284270
5.286270
5.288270
5.290270
5.292270
5.294270
5.296270
5.298270
5.300270
5.302270
5.304270
5.306270
5.308270
5.310270
5.312270
5.314270
5.316270
5.318270
5.320270
5.322270
5.324270
5.326270
5.328270
5.330270
5.332270
5.334270
5.336270
5.338270
5.340270
5.342270
5.344270
5.346270
5.348270
5.350270
5.352270
5.354270
5.356270
5.358270
5.360270
5.362270
5.364270
5.366270
5.368270
5.370270
5.372270
5.374270
5.376270
5.378270
5.380270
5.382270
5.384270
5.386270
5.388270
5.390270
5.392270
5.394270
5.396270
5.398270
5.400270
5.402270
5.404270
5.406270
5.408270
5.410270
5.412270
5.414270
5.416270
5.418270
5.420270
5.422270
5.424270
5.426270
5.428270
5.430270
5.432270
5.434270
5.436270
5.438270
5.440270
5.442270
5.444270
5.446270
5.448270
5.450270
5.452270
5.454270
5.456270
5.458270
5.460270
5.462270
5.464270
5.466270
5.468270
5.470270
5.472270
5.474270
5.476270
5.478270
5.480270
5.482270
5.484270
5.486270
5.488270
5.490270
5.492270
5.494270
5.496270
5.498270
5.500270
5.502270
5.504270
5.506270
5.508270
5.510270
5.512270
5.514270
5.516270
5.518270
5.520270
5.522270
5.524270
5.526270
5.528270
5.530270
5.532270
5.534270
5.536270
5.538270
5.540270
5.542270
5.544270
5.546270
5.548270
5.550270
5.552270
5.554270
5.556270
5.558270
5.560270
5.562270
5.564270
5.566270
5.568270
5.570270
5.572270
5.574270
5.576270
5.578270
5.580270
5.582270
5.584270
5.586270
5.588270
5.590270
5.592270
5.594270
5.596270
5.598270
5.600270
5.602270
5.604270
5.606270
5.608270
5.610270
5.612270
5.614270
5.616270
5.618270
5.620270
5.622270
5.624270
5.626270
5.628270
5.630270
5.632270
5.634270
5.636270
5.638270
5.640270
5.642270
5.644270
5.646270
5.648270
5.650270
5.652270
5.654270
5.656270
5.658270
5.660270
5.662270
5.664270
5.666270
5.668270
5.670270
5.672270
5.674270
5.676270
5.678270
5.680270
5.682270
5.684270
5.686270
5.688270
5.690270
5.692270
5.694270
5.696270
5.698270
5.700270
5.702270
5.704270
5.706270
5.708270
5.710270
5.712270
5.714270
5.716270
5.718270
5.720270
5.722270
5.724270
5.726270
5.728270
5.730270
5.732270
5.734270
5.736270
5.738270
5.740270
5.742270
5.744270
5.746270
5.748270
5.750270
5.752270
5.754270
5.756270
5.758270
5.760270
5.762270
5.764270
5.766270
5.768270
5.770270
5.772270
5.774270
5.776270
5.778270
5.780270
5.782270
5.784270
5.786270
5.788270
5.790270
5.792270
5.794270
5.796270
5.798270
5.800270
5.802270
5.804270
5.806270
5.808270
5.810270
5.812270
5.814270
5.816270
5.818270
5.820270
5.822270
5.824270
5.826270
5.828270
5.830270
5.832270
5.834270
5.836270
5.838270
5.840270
5.842270
5.844270
5.846270
5.848270
5.850270
5.852270
5.854270
5.856270
5.858270
5.860270
5.862270
5.864270
5.866270
5.868270
5.870270
5.872270
5.874270
5.876270
5.878270
5.880270
5.882270
5.884270
5.886270
5.888270
5.890270
5.892270
5.894270
5.896270
5.898270
5.900270
5.902270
5.904270
5.906270
5.908270
5.910270
5.912270
5.914270
5.916270
5.918270
5.920270
5.922270
5.924270
5.926270
5.928270
5.930270
5.932270
5.934270
5.936270
5.938270
5.940270
5.942270
5.944270
5.946270
5.948270
5.950270
5.952270
5.954270
5.956270
5.958270
5.960270
5.962270
5.964270
5.966270
5.968270
5.970270
5.972270
5.974270
5.976270
5.978270
5.980270
5.982270
5.984270
5.986270
5.988270
5.990270
5.992270
5.994270
5.996270
5.998270
6.000270
6.002270
6.004270
6.006270
6.008270
6.010270
6.012270
6.014270
6.016270
6.018270
6.020270
6.022270
6.024270
6.026270
6.028270
6.030270
6.032270
6.034270
6.036270
6.038270
6.040270
6.042270
6.044270
6.046270
6.048270
6.050270
6.052270
6.054270
6.056270
6.058270
6.060270
6.062270
6.064270
6.066270
6.068270
6.070270
6.072270
6.074270
6.076270
6.078270
6.080270
6.082270
6.084270
6.086270
6.088270
6.090270
6.092270
6.094270
6.096270
6.098270
6.100270
6.102270
6.104270
6.106270
6.108270
6.110270
6.112270
6.114270
6.116270
6.118270
6.120270
6.122270
6.124270
6.126270
6.128270
6.130270
6.132270
6.134270
6.136270
6.138270
6.140270
6.142270
6.144270
6.146270
6.148270
6.150270
6.152270
6.154270
6.156270
6.158270
6.160270
6.162270
6.164270
6.166270
6.168270
6.170270
6.172270
6.174270
6.176270
6.178270
6.180270
6.182270
6.184270
6.186270
6.188270
6.190270
6.192270
6.194270
6.196270
6.198270
6.200270
6.202270
6.204270
6.206270
6.208270
6.210270
6.212270
6.214270
6.216270
6.218270
6.220270
6.222270
6.224270
6.226270
6.228270
6.230270
6.232270
6.234270
6.236270
6.238270
6.240270
6.242270
6.244270
6.246270
6.248270
6.250270
6.252270
6.254270
6.256270
6.258270
6.260270
6.262270
6.264270
6.266270
6.268270
6.270270
6.272270
6.274270
6.276270
6.278270
6.280270
6.282270
6.284270
6.286270
6.288270
6.290270
6.292270
6.294270
6.296270
6.298270
6.300270
6.302270
6.304270
6.306270
6.308270
6.310270
6.312270
6.314270
6.316270
6.318270
6.320270
6.322270
6.324270
6.326270
6.328270
6.330270
6.332270
6.334270
6.336270
6.338270
6.340270
6.342270
6.344270
6.346270
6.348270
6.350270
6.352270
6.354270
6.356270
6.358270
6.360270
6.362270
6.364270
6.366270
6.368270
6.370270
6.372270
6.374270
6.376270
6.378270
6.380270
6.382270
6.384270
6.386270
6.388270
6.390270
6.392270
6.394270
6.396270
6.398270
6.400270
6.402270
6.404270
6.406270
6.408270
6.410270
6.412270
6.414270
6.416270
6.418270
6.420270
6.422270
6.424270
6.426270
6.428270
6.430270
6.432270
6.434270
6.436270
6.438270
6.440270
6.442270
6.444270
6.446270
6.448270
6.450270
6.452270
6.454270
6.456270
6.458270
6.460270
6.462270
6.464270
6.466270
6.468270
6.470270
6.472270
6.474270
6.476270
6.478270
6.480270
6.482270
6.484270
6.486270
6.488270
6.490270
6.492270
6.494270
6.496270
6.498270
6.500270
6.502270
6.504270
6.506270
6.508270
6.510270
6.512270
6.514270
6.516270
6.518270
6.520270
6.522270
6.524270
6.526270
6.528270
6.530270
6.532270
6.534270
6.536270
6.538270
6.540270
6.542270
6.544270
6.546270
6.548270
6.550270
6.552270
6.554270
6.556270
6.558270
6.560270
6.562270
6.564270
6.566270
6.568270
6.570270
6.572270
6.574270
6.576270
6.578270
6.580270
6.582270
6.584270
6.586270
6.588270
6.590270
6.592270
6.594270
6.596270
6.598270
6.600270
6.602270
6.604270
6.606270
6.608270
6.610270
6.612270
6.614270
6.616270
6.618270
6.620270
6.622270
6.624270
6.626270
6.628270
6.630270
6.632270
6.634270
6.636270
6.638270
6.640270
6.642270
6.644270
6.646270
6.648270
6.650270
6.652270
6.654270
6.656270
6.658270
6.660270
6.662270
6.664270
6.666270
6.668270
6.670270
6.672270
6.674270
6.676270
6.678270
6.680270
6.682270
6.684270
6.686270
6.688270
6.690270
6.692270
6.694270
6.696270
6.698270
6.700270
6.702270
6.704270
6.706270
6.708270
6.710270
6.712270
6.714270
6.716270
6.718270
6.720270
6.722270
6.724270
6.726270
6.728270
6.730270
6.732270
6.734270
6.736270
6.738270
6.740270
6.742270
6.744270
6.746270
6.748270
6.750270
6.752270
6.754270
6.756270
6.758270
6.760270
6.762270
6.764270
6.766270
6.768270
6.770270
6.772270
6.774270
6.776270
6.778270
6.780270
6.782270
6.784270
6.786270
6.788270
6.790270
6.792270
6.794270
6.796270
6.798270
6.800270
6.802270
6.804270
6.806270
6.808270
6.810270
6.812270
6.814270
6.816270
6.818270
6.820270
6.822270
6.824270
6.826270
6.828270
6.830270
6.832270
6.834270
6.836270
6.838270
6.840270
6.842270
6.844270
6.846270
6.848270
6.850270
6.852270
6.854270
6.856270
6.858270
6.860270
6.862270
6.864270
6.866270
6.868270
6.870270
6.872270
6.874270
6.876270
6.878270
6.880270
6.882270
6.884270
6.886270
6.888270
6.890270
6.892270
6.894270
6.896270
6.898270
6.900270
6.902270
6.904270
6.906270
6.908270
6.910270
6.912270
6.914270
6.916270
6.918270
6.920270
6.922270
6.924270
6.926270
6.928270
6.930270
6.932270
6.934270
6.936270
6.938270
6.940270
6.942270
6.944270
6.946270
6.948270
6.950270
6.952270
6.954270
6.956270
6.958270
6.960270
6.962270
6.964270
6.966270
6.968270
6.970270
6.972270
6.974270
6.976270
6.978270
6.980270
6.982270
6.984270
6.986270
6.988270
6.990270
6.992270
6.994270
6.996270
6.998270
7.000270
7.002270
7.004270
7.006270
7.008270
7.010270
7.012270
7.014270
7.016270
7.018270
7.020270
7.022270
7.024270
7.026270
7.028270
7.030270
7.032270
7.034270
7.036270
7.038270
7.040270
7.042270
7.044270
7.046270
7.048270
7.050270
7.052270
7.054270
7.056270
7.058270
7.060270
7.062270
7.064270
7.066270
7.068270
7.070270
7.072270
7.074270
7.076270
7.078270
7.080270
7.082270
7.084270
7.086270
7.088270
7.090270
7.092270
7.094270
7.096270
7.098270
7.100270
7.102270
7.104270
7.106270
7.108270
7.110270
7.112270
7.114270
7.116270
7.118270
7.120270
7.122270
7.124270
7.126270
7.128270
7.130270
7.132270
7.134270
7.136270
7.138270
7.140270
7.142270
7.144270
7.146270
7.148270
7.150270
7.152270
7.154270
7.156270
7.158270
7.160270
7.162270
7.164270
7.166270
7.168270
7.170270
7.172270
7.174270
7.176270
7.178270
7.180270
7.182270
7.184270
7.186270
7.188270
7.190270
7.192270
7.194270
7.196270
7.198270
7.200270
7.202270
7.204270
7.206270
7.208270
7.210270
7.212270
7.214270
7.216270
7.218270
7.220270
7.222270
7.224270
7.226270
7.228270
7.230270
7.232270
7.234270
7.236270
7.238270
7.240270
7.242270
7.244270
7.246270
7.248270
7.250270
7.252270
7.254270
7.256270
7.258270
7.260270
7.262270
7.264270
7.266270
7.268270
7.270270
7.272270
7.274270
7.276270
7.278270
7.280270
7.282270
7.284270
7.286270
7.288270
7.290270
7.292270
7.294270
7.296270
7.298270
7.300270
7.302270
7.304270
7.306270
7.308270
7.310270
7.312270
7.314270
7.316270
7.318270
7.320270
7.322270
7.324270
7.326270
7.328270
7.330270
7.332270
7.334270
7.336270
7.338270
7.340270
7.342270
7.344270
7.346270
7.348270
7.350270
7.352270
7.354270
7.356270
7.358270
7.360270
7.362270
7.364270
7.366270
7.368270
7.370270
7.372270
7.374270
7.376270
7.378270
7.380270
7.382270
7.384270
7.386270
7.388270
7.390270
7.392270
7.394270
7.396270
7.398270
7.400270
7.402270
7.404270
7.406270
7.408270
7.410270
7.412270
7.414270
7.416270
7.418270
7.420270
7.422270
7.424270
7.426270
7.428270
7.430270
7.432270
7.434270
7.436270
7.438270
7.440270
7.442270
7.444270
7.446270
7.448270
7.450270
7.452270
7.454270
7.456270
7.458270
7.460270
7.462270
7.464270
7.466270
7.468270
7.470270
7.472270
7.474270
7.476270
7.478270
7.480270
7.482270
7.484270
7.486270
7.488270
7.490270
7.492270
7.494270
7.496270
7.498270
7.500270
7.502270
7.504270
7.506270
7.508270
7.510270
7.512270
7.514270
7.516270
7.518270
7.520270
7.522270
7.524270
7.526270
7.528270
7.530270
7.532270
7.534270
7.536270
7.538270
7.540270
7.542270
7.544270
7.546270
7.548270
7.550270
7.552270
7.554270
7.556270
7.558270
7.560270
7.562270
7.564270
7.566270
7.568270
7.570270
7.572270
7.574270
7.576270
7.578270
7.580270
7.582270
7.584270
7.586270
7.588270
7.590270
7.592270
7.594270
7.596270
7.598270
7.600270
7.602270
7.604270
7.606270
7.608270
7.610270
7.612270
7.614270
7.616270
7.618270
7.620270
7.622270
7.624270
7.626270
7.628270
7.630270
7.632270
7.634270
7.636270
7.638270
7.640270
7.642270
7.644270
7.646270
7.648270
7.650270
7.652270
7.654270
7.656270
7.658270
7.660270
7.662270
7.664270
7.666270
7.668270
7.670270
7.672270
7.674270
7.676270
7.678270
7.680270
7.682270
7.684270
7.686270
7.688270
7.690270
7.692270
7.694270
7.696270
7.698270
7.700270
7.702270
7.704270
7.706270
7.708270
7.710270
7.712270
7.714270
7.716270
7.718270
7.720270
7.722270
7.724270
7.726270
7.728270
7.730270
7.732270
7.734270
7.736270
7.738270
7.740270
7.742270
7.744270
7.746270
7.748270
7.750270
7.752270
7.754270
7.756270
7.758270
7.760270
7.762270
7.764270
7.766270
7.768270
