0.000000
0.000000
0.000000
0.000000
0.000000
0.000000
0.000000
0.000000
0.000000
0.000000
0.000000
0.000000
0.000000
0.000000
0.000000
0.000000
0.000000
0.000000
0.000000
0.000000
0.000000
0.000000
0.000000
0.000000
0.000000
0.000000
0.000000
0.000000
0.000000
0.000000
0.000000
0.000000
0.000000
0.000000
0.000000
0.000000
0.000000
0.000000
0.000000
0.000000
0.000000
0.000000
0.000000
0.000000
0.000000
0.000000
0.000000
0.000000
0.000000
0.000000
0.000000
0.000000
0.000000
0.000000
0.000000
0.000000
0.000000
0.000000
0.000000
0.000000
0.000000
0.000000
0.000000
0.000000
0.000000
0.000000
0.000000
0.000000
0.000000
0.000000
0.000000
0.000000
0.000000
0.000000
0.000000
0.000000
0.000000
0.000000
0.000000
0.000000
0.000000
0.000000
0.000000
0.000000
0.000000
0.000000
0.000000
0.000000
0.000000
0.000000
0.000000
0.000000
0.000000
0.000000
0.000000
0.000000
0.000000
0.000000
0.000000
0.000000
0.000000
0.000000
0.000000
0.000000
0.000000
0.000000
0.000000
0.000000
0.000000
0.000000
0.000000
0.000000
0.000000
0.000000
0.000000
0.000000
0.000000
0.000000
0.000000
0.000000
0.000000
0.000000
0.000000
0.000000
0.000000
0.000000
0.000000
0.000000
0.000000
0.000000
0.000000
0.000000
0.000000
0.000000
0.000000
0.000000
0.000000
0.000000
0.000000
0.000000
0.000000
0.000000
0.000000
0.000000
0.000000
0.000000
0.000000
0.000000
0.000000
0.000000
0.000000
0.000000
0.000000
0.000000
0.000000
0.000000
0.000000
0.000000
0.000000
0.000000
0.000000
0.000000
0.000000
0.000000
0.000000
0.000000
0.000000
0.000000
0.000000
0.000000
0.000000
0.000000
0.000000
0.000000
0.000000
0.000000
0.000000
0.000000
0.000000
0.000000
0.000000
0.000000
0.000000
0.000000
0.000000
0.000000
0.000000
0.000000
0.000000
0.000000
0.000000
0.000000
0.000000
0.000000
0.000000
0.000000
0.000000
0.000000
0.000000
0.000000
0.000000
0.000000
0.000000
0.000000
0.000000
0.000000
0.000000
0.000000
0.000000
0.000000
0.000000
0.000000
0.000000
0.000000
0.000000
0.000000
0.000000
0.000000
0.000000
0.000000
0.000000
0.000000
0.000000
0.000000
0.000000
0.000000
0.000000
0.000000
0.000000
0.000000
0.000000
0.000000
0.000000
0.000000
0.000000
0.000000
0.000000
0.000000
0.000000
0.000000
0.000000
0.000000
0.000000
0.000000
0.000000
0.000000
0.000000
0.000000
0.000000
0.000000
0.000000
0.000000
0.000000
0.000000
0.000000
0.000000
0.000000
0.000000
0.000000
0.000000
0.000000
0.000000
0.000000
0.000000
0.000000
0.000000
0.000000
0.000000
0.000000
0.000000
0.000000
0.000000
0.000000
0.000000
0.000000
0.000000
0.000000
0.000000
0.000000
0.000000
0.000000
0.000000
0.000000
0.000000
0.000000
0.000000
0.000000
0.000000
0.000000
0.000000
0.000000
0.000000
0.000000
0.000000
0.000000
0.000000
0.000000
0.000000
0.000000
0.000000
0.000000
0.000000
0.000000
0.000000
0.000000
0.000000
0.000000
0.000000
0.000000
0.000000
0.000000
0.000000
0.000000
0.000000
0.000000
0.000000
0.000000
0.000000
0.000000
0.000000
0.000000
0.000000
0.000000
0.000000
0.000000
0.000000
0.000000
0.000000
0.000000
0.000000
0.000000
0.000000
0.000000
0.000000
0.000000
0.000000
0.000000
0.000000
0.000000
0.000000
0.000000
0.000000
0.000000
0.000000
0.000000
0.000000
0.000000
0.000000
0.000000
0.000000
0.000000
0.000000
0.000000
0.000000
0.000000
0.000000
0.000000
0.000000
0.000000
0.000000
0.000000
0.000000
0.000000
0.000000
0.000000
0.000000
0.000000
0.000000
0.000000
0.000000
0.000000
0.000000
0.000000
0.000000
0.000000
0.000000
0.000000
0.000000
0.000000
0.000000
0.000000
0.000000
0.000000
0.000000
0.000000
0.000000
0.000000
0.000000
0.000000
0.000000
0.000000
0.000000
0.000000
0.000000
0.000000
0.000000
0.000000
0.000000
0.000000
0.000000
0.000000
0.000000
0.000000
0.000000
0.000000
0.000000
0.000000
0.000000
0.000000
0.000000
0.000000
0.000000
0.000000
0.000000
0.000000
0.000000
0.000000
0.000000
0.000000
0.000000
0.000000
0.000000
0.000000
0.000000
0.000000
0.000000
0.000000
0.000000
0.000000
0.000000
0.000000
0.000000
0.000000
0.000000
0.000000
0.000000
0.000000
0.000000
0.000000
0.000000
0.000000
0.000000
0.000000
0.000000
0.000000
0.000000
0.000000
0.000000
0.000000
0.000000
0.000000
0.000000
0.000000
0.000000
0.000000
0.000000
0.000000
0.000000
0.000000
0.000000
0.000000
0.000000
0.000000
0.000000
0.000000
0.000000
0.000000
0.000000
0.000000
0.000000
0.000000
0.000000
0.000000
0.000000
0.000000
0.000000
0.000000
0.000000
0.000000
0.000000
0.000000
0.000000
0.000000
0.000000
0.000000
0.000000
0.000000
0.000000
0.000000
0.000000
0.000000
0.000000
0.000000
0.000000
0.000000
0.000000
0.000000
0.000000
0.000000
0.000000
0.000000
0.000000
0.000000
0.000000
0.000000
0.000000
0.000000
0.000000
0.000000
0.000000
0.000000
0.000000
0.000000
0.000000
0.000000
0.000000
0.000000
0.000000
0.000000
0.000000
0.000000
0.000000
0.000000
0.000000
0.000000
0.000000
0.000000
0.000000
0.000000
0.000000
0.000000
0.000000
0.000000
0.000000
0.000000
0.000000
0.000000
0.000000
0.000000
0.000000
0.000000
0.000000
0.000000
0.000000
0.000000
0.000000
0.000000
0.000000
0.000000
0.000000
0.000000
0.000000
0.000000
0.000000
0.000000
0.000000
0.000000
0.000000
0.000000
0.000000
0.000000
0.000000
0.000000
0.000000
0.000000
0.000000
0.000000
0.000000
0.000000
0.000000
0.000000
0.000000
0.000000
0.000000
0.000000
0.000000
0.000000
0.000000
0.000000
0.000000
0.000000
0.000000
0.000000
0.000000
0.000000
0.000000
0.000000
0.000000
0.000000
0.000000
0.000000
0.000000
0.000000
0.000000
0.000000
0.000000
0.000000
0.000000
0.000000
0.000000
0.000000
0.000000
0.000000
0.000000
0.000000
0.000000
0.000000
0.000000
0.000000
0.000000
0.000000
0.000000
0.000000
0.000000
0.000000
0.000000
0.000000
0.000000
0.000000
0.000000
0.000000
0.000000
0.000000
0.000000
0.000000
0.000000
0.000000
0.000000
0.000000
0.000000
0.000000
0.000000
0.000000
0.000000
0.000000
0.000000
0.000000
0.000000
0.000000
0.000000
0.000000
0.000000
0.000000
0.000000
0.000000
0.000000
0.000000
0.000000
0.000000
0.000000
0.000000
0.000000
0.000000
0.000000
0.000000
0.000000
0.000000
0.000000
0.000000
0.000000
0.000000
0.000000
0.000000
0.000000
0.000000
0.000000
0.000000
0.000000
0.000000
0.000000
0.000000
0.000000
0.000000
0.000000
0.000000
0.000000
0.000000
0.000000
0.000000
0.000000
0.000000
0.000000
0.000000
0.000000
0.000000
0.000000
0.000000
0.000000
0.000000
0.000000
0.000000
0.000000
0.000000
0.000000
0.000000
0.000000
0.000000
0.000000
0.000000
0.000000
0.000000
0.000000
0.000000
0.000000
0.000000
0.000000
0.000000
0.000000
0.000000
0.000000
0.000000
0.000000
0.000000
0.000000
0.000000
0.000000
0.000000
0.000000
0.000000
0.000000
0.000000
0.000000
0.000000
0.000000
0.000000
0.000000
0.000000
0.000000
0.000000
0.000000
0.000000
0.000000
0.000000
0.000000
0.000000
0.000000
0.000000
0.000000
0.000000
0.000000
0.000000
0.000000
0.000000
0.000000
0.000000
0.000000
0.000000
0.000000
0.000000
0.000000
0.000000
0.000000
0.000000
0.000000
0.000000
0.000000
0.000000
0.000000
0.000000
0.000000
0.000000
0.000000
0.000000
0.000000
0.000000
0.000000
0.000000
0.000000
0.000000
0.000000
0.000000
0.000000
0.000000
0.000000
0.000000
0.000000
0.000000
0.000000
0.000000
0.000000
0.000000
0.000000
0.000000
0.000000
0.000000
0.000000
0.000000
0.000000
0.000000
0.000000
0.000000
0.000000
0.000000
0.000000
0.000000
0.000000
0.000000
0.000000
0.000000
0.000000
0.000000
0.000000
0.000000
0.000000
0.000000
0.000000
0.000000
0.000000
0.000000
0.000000
0.000000
0.000000
0.000000
0.000000
0.000000
0.000000
0.000000
0.000000
0.000000
0.000000
0.000000
0.000000
0.000000
0.000000
0.000000
0.000000
0.000000
0.000000
0.000000
0.000000
0.000000
0.000000
0.000000
0.000000
0.000000
0.000000
0.000000
0.000000
0.000000
0.000000
0.000000
0.000000
0.000000
0.000000
0.000000
0.000000
0.000000
0.000000
0.000000
0.000000
0.000000
0.000000
0.000000
0.000000
0.000000
0.000000
0.000000
0.000000
0.000000
0.000000
0.000000
0.000000
0.000000
0.000000
0.000000
0.000000
0.000000
0.000000
0.000000
0.000000
0.000000
0.000000
0.000000
0.000000
0.000000
0.000000
0.000000
0.000000
0.000000
0.000000
0.000000
0.000000
0.000000
0.000000
0.000000
0.000000
0.000000
0.000000
0.000000
0.000000
0.000000
0.000000
0.000000
0.000000
0.000000
0.000000
0.000000
0.000000
0.000000
0.000000
0.000000
0.000000
0.000000
0.000000
0.000000
0.000000
0.000000
0.000000
0.000000
0.000000
0.000000
0.000000
0.000000
0.000000
0.000000
0.000000
0.000000
0.000000
0.000000
0.000000
0.000000
0.000000
0.000000
0.000000
0.000000
0.000000
0.000000
0.000000
0.000000
0.000000
0.000000
0.000000
0.000000
0.000000
0.000000
0.000000
0.000000
0.000000
0.000000
0.000000
0.000000
0.000000
0.000000
0.000000
0.000000
0.000000
0.000000
0.000000
0.000000
0.000000
0.000000
0.000000
0.000000
0.000000
0.000000
0.000000
0.000000
0.000000
0.000000
0.000000
0.000000
0.000000
0.000000
0.000000
0.000000
0.000000
0.000000
0.000000
0.000000
0.000000
0.000000
0.000000
0.000000
0.000000
0.000000
0.000000
0.000000
0.000000
0.000000
0.000000
0.000000
0.000000
0.000000
0.000000
0.000000
0.000000
0.000000
0.000000
0.000000
0.000000
0.000000
0.000000
0.000000
0.000000
0.000000
0.000000
0.000000
0.000000
0.000000
0.000000
0.000000
0.050980
0.050980
0.050980
0.050980
0.050980
0.099362
0.099362
0.099362
0.099362
0.099362
0.099362
0.099362
0.145277
0.188851
0.230204
0.230204
0.230204
0.306692
0.342037
0.342037
0.342037
0.342037
0.342037
0.342037
0.342037
0.342037
0.342037
0.342037
0.342037
0.342037
0.342037
0.342037
0.342037
0.342037
0.342037
0.342037
0.342037
0.342037
0.342037
0.342037
0.342037
0.342037
0.342037
0.342037
0.342037
0.342037
0.342037
0.342037
0.342037
0.342037
0.342037
0.342037
0.342037
0.342037
0.342037
0.342037
0.342037
0.342037
0.342037
0.342037
0.342037
0.342037
0.342037
0.342037
0.342037
0.342037
0.342037
0.342037
0.342037
0.342037
0.342037
0.342037
0.342037
0.342037
0.342037
0.342037
0.342037
0.342037
0.342037
0.342037
0.342037
0.342037
0.342037
0.342037
0.342037
0.342037
0.342037
0.342037
0.342037
0.342037
0.342037
0.342037
0.342037
0.342037
0.342037
0.342037
0.342037
0.342037
0.342037
0.342037
0.342037
0.342037
0.342037
0.342037
0.342037
0.342037
0.342037
0.342037
0.342037
0.342037
0.342037
0.342037
0.342037
0.342037
0.342037
0.342037
0.342037
0.342037
0.342037
0.342037
0.342037
0.342037
0.342037
0.342037
0.342037
0.342037
0.342037
0.342037
0.342037
0.342037
0.342037
0.342037
0.342037
0.342037
0.342037
0.342037
0.342037
0.342037
0.342037
0.342037
0.342037
0.342037
0.342037
0.342037
0.342037
0.342037
0.342037
0.342037
0.342037
0.342037
0.342037
0.342037
0.342037
0.342037
0.342037
0.342037
0.342037
0.342037
0.342037
0.342037
0.342037
0.342037
0.342037
0.342037
0.342037
0.342037
0.342037
0.342037
0.342037
0.342037
0.342037
0.342037
0.342037
0.342037
0.342037
0.342037
0.342037
0.342037
0.342037
0.342037
0.342037
0.342037
0.342037
0.342037
0.342037
0.342037
0.342037
0.342037
0.342037
0.342037
0.342037
0.342037
0.342037
0.342037
0.342037
0.342037
0.342037
0.342037
0.342037
0.342037
0.342037
0.342037
0.342037
0.342037
0.342037
0.342037
0.342037
0.342037
0.342037
0.342037
0.342037
0.342037
0.342037
0.342037
0.342037
0.342037
0.342037
0.342037
0.342037
0.342037
0.342037
0.342037
0.342037
0.342037
0.342037
0.342037
0.342037
0.342037
0.342037
0.342037
0.342037
0.342037
0.342037
0.342037
0.342037
0.342037
0.342037
0.342037
0.342037
0.342037
0.342037
0.342037
0.342037
0.342037
0.342037
0.342037
0.342037
0.342037
0.342037
0.342037
0.342037
0.342037
0.342037
0.342037
0.342037
0.342037
0.342037
0.342037
0.342037
0.342037
0.342037
0.342037
0.342037
0.342037
0.342037
0.342037
0.342037
0.342037
0.342037
0.342037
0.342037
0.342037
0.342037
0.342037
0.342037
0.342037
0.342037
0.342037
0.342037
0.342037
0.342037
0.342037
0.342037
0.342037
0.342037
0.342037
0.342037
0.342037
0.342037
0.342037
0.342037
0.342037
0.342037
0.342037
0.342037
0.342037
0.342037
0.342037
0.342037
0.342037
0.342037
0.342037
0.342037
0.342037
0.342037
0.342037
0.342037
0.342037
0.342037
0.342037
0.342037
0.407413
0.466294
0.466294
0.466294
0.466294
0.466294
0.466294
0.466294
0.466294
0.466294
0.466294
0.466294
0.466294
0.466294
0.466294
0.466294
0.466294
0.466294
0.466294
0.466294
0.466294
0.466294
0.466294
0.466294
0.466294
0.466294
0.466294
0.466294
0.466294
0.466294
0.466294
0.466294
0.466294
0.466294
0.466294
0.466294
0.466294
0.466294
0.466294
0.466294
0.466294
0.466294
0.466294
0.466294
0.466294
0.466294
0.466294
0.466294
0.466294
0.466294
0.466294
0.466294
0.466294
0.466294
0.466294
0.466294
0.466294
0.466294
0.466294
0.466294
0.466294
0.466294
0.466294
0.466294
0.466294
0.466294
0.466294
0.466294
0.466294
0.466294
0.466294
0.466294
0.466294
0.466294
0.466294
0.466294
0.466294
0.466294
0.466294
0.466294
0.466294
0.466294
0.466294
0.466294
0.466294
0.466294
0.466294
0.466294
0.466294
0.466294
0.466294
0.466294
0.466294
0.466294
0.466294
0.466294
0.466294
0.466294
0.466294
0.466294
0.466294
0.466294
0.466294
0.466294
0.466294
0.466294
0.466294
0.466294
0.466294
0.466294
0.466294
0.466294
0.466294
0.466294
0.466294
0.466294
0.466294
0.466294
0.466294
0.466294
0.466294
0.466294
0.466294
0.466294
0.466294
0.466294
0.466294
0.466294
0.466294
0.466294
0.466294
0.466294
0.466294
0.466294
0.466294
0.466294
0.466294
0.466294
0.466294
0.466294
0.466294
0.466294
0.466294
0.466294
0.466294
0.466294
0.466294
0.466294
0.466294
0.466294
0.466294
0.466294
0.466294
0.466294
0.466294
0.466294
0.466294
0.466294
0.466294
0.466294
0.466294
0.466294
0.466294
0.466294
0.466294
0.466294
0.466294
0.466294
0.466294
0.466294
0.466294
0.466294
0.466294
0.466294
0.466294
0.466294
0.466294
0.466294
0.466294
0.466294
0.466294
0.466294
0.466294
0.466294
0.466294
0.466294
0.466294
0.466294
0.466294
0.466294
0.466294
0.466294
0.466294
0.466294
0.466294
0.466294
0.466294
0.466294
0.466294
0.466294
0.466294
0.466294
0.466294
0.466294
0.466294
0.466294
0.466294
0.466294
0.466294
0.466294
0.466294
0.466294
0.466294
0.466294
0.466294
0.466294
0.466294
0.466294
0.466294
0.466294
0.466294
0.466294
0.466294
0.466294
0.466294
0.466294
0.466294
0.466294
0.466294
0.466294
0.466294
0.466294
0.466294
0.466294
0.466294
0.466294
0.466294
0.466294
0.466294
0.466294
0.466294
0.466294
0.466294
0.466294
0.466294
0.466294
0.466294
0.466294
0.466294
0.466294
0.466294
0.466294
0.466294
0.466294
0.466294
0.466294
0.466294
0.466294
0.466294
0.466294
0.466294
0.466294
0.466294
0.466294
0.466294
0.466294
0.466294
0.466294
0.466294
0.466294
0.466294
0.466294
0.466294
0.466294
0.466294
0.466294
0.466294
0.466294
0.466294
0.466294
0.466294
0.466294
0.466294
0.466294
0.466294
0.466294
0.466294
0.466294
0.466294
0.466294
0.466294
0.466294
0.466294
0.466294
0.466294
0.466294
0.466294
0.466294
0.466294
0.466294
0.466294
0.466294
0.466294
0.466294
0.466294
0.466294
0.466294
0.466294
0.466294
0.466294
0.466294
0.466294
0.466294
0.466294
0.466294
0.466294
0.466294
0.466294
0.466294
0.466294
0.466294
0.466294
0.466294
0.466294
0.466294
0.466294
0.466294
0.466294
0.466294
0.466294
0.466294
0.466294
0.466294
0.466294
0.466294
0.466294
0.466294
0.466294
0.466294
0.466294
0.466294
0.466294
0.466294
0.466294
0.466294
0.466294
0.466294
0.466294
0.466294
0.466294
0.466294
0.466294
0.466294
0.466294
0.466294
0.466294
0.466294
0.466294
0.466294
0.466294
0.466294
0.466294
0.466294
0.466294
0.466294
0.466294
0.466294
0.466294
0.466294
0.466294
0.466294
0.466294
0.466294
0.466294
0.466294
0.466294
0.466294
0.466294
0.466294
0.466294
0.466294
0.466294
0.466294
0.466294
0.466294
0.466294
0.466294
0.466294
0.466294
0.466294
0.466294
0.466294
0.466294
0.466294
0.466294
0.466294
0.466294
0.466294
0.466294
0.466294
0.466294
0.466294
0.466294
0.466294
0.466294
0.466294
0.466294
0.466294
0.466294
0.466294
0.466294
0.466294
0.466294
0.466294
0.466294
0.466294
0.466294
0.466294
0.466294
0.466294
0.466294
0.466294
0.466294
0.466294
0.466294
0.466294
0.466294
0.466294
0.466294
0.466294
0.466294
0.466294
0.466294
0.466294
0.466294
0.466294
0.466294
0.466294
0.466294
0.466294
0.466294
0.466294
0.466294
0.466294
0.466294
0.466294
0.466294
0.466294
0.466294
0.466294
0.466294
0.466294
0.466294
0.466294
0.466294
0.466294
0.466294
0.466294
0.466294
0.466294
0.466294
0.466294
0.466294
0.466294
0.466294
0.466294
0.466294
0.466294
0.466294
0.466294
0.466294
0.466294
0.466294
0.466294
0.466294
0.466294
0.466294
0.466294
0.466294
0.466294
0.466294
0.466294
0.466294
0.466294
0.466294
0.466294
0.466294
0.466294
0.466294
0.466294
0.466294
0.466294
0.466294
0.466294
0.466294
0.466294
0.466294
0.466294
0.466294
0.466294
0.466294
0.466294
0.466294
0.466294
0.466294
0.466294
0.466294
0.466294
0.466294
0.466294
0.466294
0.466294
0.466294
0.466294
0.466294
0.466294
0.466294
0.466294
0.466294
0.466294
0.466294
0.466294
0.466294
0.493502
0.543829
0.610100
0.610100
0.648841
0.666743
0.666743
0.683733
0.683733
0.683733
0.683733
0.683733
0.683733
0.683733
0.699856
0.715158
0.715158
0.729679
0.743460
0.743460
0.756539
0.756539
0.756539
0.756539
0.756539
0.756539
0.756539
0.756539
0.756539
0.756539
0.756539
0.756539
0.756539
0.756539
0.756539
0.756539
0.756539
0.756539
0.756539
0.756539
0.756539
0.756539
0.756539
0.756539
0.756539
0.756539
0.756539
0.756539
0.756539
0.756539
0.756539
0.756539
0.756539
0.756539
0.756539
0.756539
0.756539
0.756539
0.756539
0.756539
0.756539
0.756539
0.756539
0.756539
0.756539
0.756539
0.756539
0.756539
0.756539
0.756539
0.756539
0.756539
0.756539
0.756539
0.756539
0.756539
0.756539
0.756539
0.756539
0.756539
0.756539
0.756539
0.756539
0.756539
0.756539
0.756539
0.756539
0.756539
0.756539
0.756539
0.756539
0.756539
0.756539
0.756539
0.756539
0.756539
0.756539
0.756539
0.756539
0.756539
0.756539
0.756539
0.756539
0.756539
0.756539
0.756539
0.756539
0.756539
0.756539
0.756539
0.756539
0.756539
0.756539
0.756539
0.756539
0.756539
0.756539
0.756539
0.756539
0.756539
0.756539
0.756539
0.756539
0.756539
0.756539
0.756539
0.756539
0.756539
0.756539
0.756539
0.756539
0.756539
0.756539
0.756539
0.756539
0.756539
0.756539
0.756539
0.756539
0.756539
0.756539
0.756539
0.756539
0.756539
0.756539
0.756539
0.756539
0.756539
0.756539
0.756539
0.756539
0.756539
0.756539
0.756539
0.756539
0.756539
0.756539
0.756539
0.756539
0.756539
0.756539
0.756539
0.756539
0.756539
0.756539
0.756539
0.756539
0.756539
0.756539
0.756539
0.756539
0.756539
0.756539
0.756539
0.756539
0.756539
0.756539
0.756539
0.756539
0.756539
0.756539
0.756539
0.756539
0.756539
0.756539
0.756539
0.756539
0.756539
0.756539
0.756539
0.756539
0.756539
0.756539
0.756539
0.756539
0.756539
0.756539
0.756539
0.756539
0.756539
0.756539
0.756539
0.756539
0.756539
0.756539
0.756539
0.756539
0.756539
0.756539
0.756539
0.756539
0.756539
0.756539
0.756539
0.756539
0.756539
0.756539
0.756539
0.756539
0.756539
0.756539
0.756539
0.756539
0.756539
0.756539
0.756539
0.756539
0.756539
0.756539
0.756539
0.756539
0.756539
0.756539
0.756539
0.756539
0.756539
0.756539
0.756539
0.756539
0.756539
0.756539
0.756539
0.756539
0.756539
0.756539
0.756539
0.756539
0.756539
0.756539
0.756539
0.756539
0.756539
0.756539
0.756539
0.756539
0.756539
0.756539
0.756539
0.756539
0.756539
0.756539
0.756539
0.756539
0.756539
0.756539
0.756539
0.756539
0.756539
0.756539
0.756539
0.756539
0.756539
0.756539
0.756539
0.756539
0.756539
0.756539
0.756539
0.756539
0.756539
0.756539
0.756539
0.756539
0.756539
0.756539
0.756539
0.756539
0.756539
0.756539
0.756539
0.756539
0.756539
0.756539
0.756539
0.756539
0.756539
0.756539
0.756539
0.756539
0.756539
0.756539
0.756539
0.756539
0.756539
0.756539
0.756539
0.756539
0.756539
0.756539
0.756539
0.756539
0.756539
0.756539
0.756539
0.756539
0.756539
0.756539
0.756539
0.756539
0.756539
0.756539
0.756539
0.756539
0.756539
0.756539
0.756539
0.756539
0.756539
0.756539
0.756539
0.756539
0.756539
0.756539
0.756539
0.756539
0.756539
0.756539
0.756539
0.756539
0.756539
0.756539
0.756539
0.756539
0.756539
0.756539
0.756539
0.756539
0.756539
0.756539
0.756539
0.756539
0.756539
0.756539
0.756539
0.756539
0.756539
0.756539
0.756539
0.756539
0.756539
0.756539
0.756539
0.756539
0.756539
0.756539
0.756539
0.756539
0.756539
0.756539
0.756539
0.756539
0.756539
0.756539
0.756539
0.756539
0.756539
0.756539
0.756539
0.756539
0.756539
0.756539
0.756539
0.756539
0.756539
0.756539
0.756539
0.756539
0.756539
0.756539
0.756539
0.756539
0.756539
0.756539
0.756539
0.756539
0.756539
0.756539
0.756539
0.756539
0.756539
0.756539
0.756539
0.756539
0.756539
0.756539
0.756539
0.756539
0.756539
0.768950
0.768950
0.768950
0.768950
0.768950
0.780729
0.780729
0.780729
0.780729
0.780729
0.780729
0.780729
0.780729
0.780729
0.780729
0.791908
0.791908
0.791908
0.791908
0.791908
0.791908
0.791908
0.791908
0.791908
0.791908
0.791908
0.791908
0.791908
0.791908
0.791908
0.791908
0.791908
0.791908
0.791908
0.791908
0.791908
0.791908
0.791908
0.791908
0.791908
0.791908
0.791908
0.791908
0.791908
0.791908
0.791908
0.791908
0.791908
0.791908
0.791908
0.791908
0.791908
0.791908
0.791908
0.791908
0.791908
0.791908
0.791908
0.791908
0.791908
0.791908
0.791908
0.791908
0.791908
0.791908
0.791908
0.791908
0.791908
0.791908
0.791908
0.791908
0.791908
0.791908
0.791908
0.791908
0.791908
0.791908
0.791908
0.791908
0.791908
0.791908
0.791908
0.791908
0.791908
0.791908
0.791908
0.791908
0.791908
0.791908
0.791908
0.791908
0.791908
0.791908
0.791908
0.791908
0.791908
0.791908
0.791908
0.791908
0.791908
0.791908
0.791908
0.791908
0.791908
0.791908
0.791908
0.791908
0.791908
0.791908
0.791908
0.791908
0.791908
0.791908
0.791908
0.791908
0.791908
0.791908
0.791908
0.791908
0.791908
0.791908
0.791908
0.791908
0.791908
0.791908
0.791908
0.791908
0.791908
0.791908
0.791908
0.791908
0.791908
0.791908
0.791908
0.791908
0.791908
0.791908
0.791908
0.791908
0.791908
0.791908
0.791908
0.791908
0.791908
0.791908
0.791908
0.791908
0.791908
0.791908
0.791908
0.791908
0.791908
0.791908
0.791908
0.791908
0.791908
0.791908
0.791908
0.791908
0.791908
0.791908
0.791908
0.791908
0.791908
0.791908
0.791908
0.791908
0.791908
0.791908
0.791908
0.791908
0.791908
0.791908
0.791908
0.791908
0.791908
0.791908
0.791908
0.791908
0.791908
0.791908
0.791908
0.791908
0.791908
0.791908
0.791908
0.791908
0.791908
0.791908
0.791908
0.791908
0.791908
0.791908
0.791908
0.791908
0.791908
0.791908
0.791908
0.791908
0.791908
0.791908
0.791908
0.791908
0.791908
0.791908
0.791908
0.791908
0.791908
0.791908
0.791908
0.791908
0.791908
0.791908
0.791908
0.791908
0.791908
0.791908
0.791908
0.791908
0.791908
0.791908
0.791908
0.791908
0.791908
0.791908
0.791908
0.791908
0.791908
0.791908
0.791908
0.791908
0.791908
0.791908
0.791908
0.791908
0.791908
0.791908
0.791908
0.791908
0.791908
0.791908
0.791908
0.791908
0.791908
0.791908
0.791908
0.791908
0.791908
0.791908
0.791908
0.791908
0.791908
0.791908
0.791908
0.791908
0.791908
0.791908
0.791908
0.791908
0.791908
0.791908
0.791908
0.791908
0.791908
0.791908
0.791908
0.791908
0.791908
0.791908
0.791908
0.791908
0.791908
0.791908
0.791908
0.791908
0.791908
0.791908
0.791908
0.791908
0.791908
0.791908
0.791908
0.791908
0.791908
0.791908
0.791908
0.791908
0.791908
0.791908
0.791908
0.791908
0.791908
0.791908
0.791908
0.791908
0.791908
0.791908
0.791908
0.791908
0.791908
0.791908
0.791908
0.791908
0.791908
0.791908
0.791908
0.791908
0.791908
0.791908
0.791908
0.791908
0.791908
0.791908
0.791908
0.791908
0.791908
0.791908
0.791908
0.791908
0.791908
0.791908
0.791908
0.791908
0.791908
0.791908
0.791908
0.791908
0.791908
0.791908
0.791908
0.791908
0.791908
0.791908
0.791908
0.791908
0.791908
0.791908
0.791908
0.791908
0.791908
0.791908
0.791908
0.791908
0.791908
0.791908
0.791908
0.791908
0.791908
0.791908
0.791908
0.791908
0.791908
0.791908
0.791908
0.791908
0.791908
0.791908
0.791908
0.791908
0.791908
0.791908
0.791908
0.791908
0.791908
0.791908
0.791908
0.791908
0.791908
0.791908
0.791908
0.791908
0.791908
0.791908
0.791908
0.791908
0.791908
0.791908
0.791908
0.791908
0.791908
0.791908
0.791908
0.791908
0.791908
0.791908
0.791908
0.791908
0.791908
0.791908
0.791908
0.791908
0.791908
0.791908
0.791908
0.791908
0.791908
0.791908
0.791908
0.791908
0.791908
0.791908
0.791908
0.791908
0.791908
0.791908
0.791908
0.791908
0.791908
0.791908
0.791908
0.791908
0.791908
0.791908
0.791908
0.791908
0.791908
0.791908
0.791908
0.791908
0.791908
0.791908
0.791908
0.791908
0.791908
0.791908
0.791908
0.791908
0.791908
0.791908
0.791908
0.791908
0.791908
0.791908
0.791908
0.791908
0.791908
0.791908
0.791908
0.791908
0.791908
0.791908
0.791908
0.791908
0.791908
0.791908
0.791908
0.791908
0.791908
0.791908
0.791908
0.791908
0.791908
0.791908
0.791908
0.791908
0.791908
0.791908
0.791908
0.791908
0.791908
0.791908
0.791908
0.791908
0.791908
0.791908
0.791908
0.791908
0.791908
0.791908
0.791908
0.791908
0.791908
0.791908
0.791908
0.791908
0.791908
0.791908
0.791908
0.791908
0.791908
0.791908
0.791908
0.791908
0.791908
0.791908
0.791908
0.791908
0.791908
0.791908
0.791908
0.791908
0.791908
0.791908
0.791908
0.791908
0.791908
0.791908
0.791908
0.791908
0.791908
0.791908
0.791908
0.791908
0.791908
0.791908
0.791908
0.791908
0.791908
0.791908
0.791908
0.791908
0.791908
0.791908
0.791908
0.791908
0.791908
0.791908
0.791908
0.791908
0.791908
0.791908
0.791908
0.791908
0.791908
0.791908
0.791908
0.791908
0.791908
0.791908
0.791908
0.791908
0.791908
0.791908
0.791908
0.791908
0.791908
0.791908
0.791908
0.791908
0.791908
0.791908
0.791908
0.791908
0.791908
0.791908
0.791908
0.791908
0.791908
0.791908
0.791908
0.791908
0.791908
0.791908
0.791908
0.791908
0.791908
0.791908
0.791908
0.791908
0.791908
0.791908
0.791908
0.791908
0.791908
0.791908
0.791908
0.791908
0.791908
0.791908
0.791908
0.791908
0.791908
0.791908
0.791908
0.791908
0.791908
0.791908
0.791908
0.791908
0.791908
0.791908
0.791908
0.791908
0.791908
0.791908
0.791908
0.791908
0.791908
0.791908
0.791908
0.791908
0.791908
0.791908
0.791908
0.791908
0.791908
0.791908
0.791908
0.791908
0.791908
0.791908
0.791908
0.791908
0.791908
0.791908
0.791908
0.791908
0.791908
0.791908
0.791908
0.791908
0.791908
0.791908
0.791908
0.791908
0.791908
0.791908
0.791908
0.791908
0.791908
0.791908
0.791908
0.791908
0.791908
0.791908
0.791908
0.791908
0.791908
0.791908
0.791908
0.791908
0.791908
0.791908
0.791908
0.791908
0.791908
0.791908
0.791908
0.791908
0.791908
0.791908
0.791908
0.791908
0.791908
0.791908
0.791908
0.791908
0.791908
0.791908
0.791908
0.791908
0.791908
0.791908
0.791908
0.791908
0.791908
0.791908
0.791908
0.791908
0.791908
0.791908
0.791908
0.791908
0.791908
0.791908
0.791908
0.791908
0.791908
0.791908
0.791908
0.791908
0.791908
0.791908
0.791908
0.791908
0.791908
0.791908
0.791908
0.791908
0.791908
0.791908
0.791908
0.791908
0.791908
0.791908
0.791908
0.791908
0.791908
0.791908
0.791908
0.791908
0.791908
0.791908
0.791908
0.791908
0.791908
0.791908
0.791908
0.791908
0.791908
0.791908
0.791908
0.791908
0.791908
0.791908
0.791908
0.791908
0.791908
0.791908
0.791908
0.791908
0.791908
0.791908
0.791908
0.791908
0.791908
0.791908
0.791908
0.791908
0.791908
0.791908
0.791908
0.791908
0.791908
0.791908
0.791908
0.791908
0.791908
0.791908
0.791908
0.791908
0.791908
0.791908
0.791908
0.791908
0.791908
0.791908
0.791908
0.791908
0.791908
0.791908
0.791908
0.791908
0.791908
0.791908
0.791908
0.791908
0.791908
0.791908
0.791908
0.791908
0.791908
0.791908
0.791908
0.791908
0.791908
0.791908
0.791908
0.791908
0.791908
0.791908
0.791908
0.791908
0.791908
0.791908
0.791908
0.791908
0.791908
0.791908
0.791908
0.791908
0.791908
0.791908
0.791908
0.791908
0.791908
0.791908
0.791908
0.791908
0.791908
0.791908
0.791908
0.791908
0.791908
0.791908
0.791908
0.791908
0.791908
0.791908
0.791908
0.791908
0.791908
0.791908
0.791908
0.791908
0.791908
0.791908
0.791908
0.791908
0.791908
0.791908
0.791908
0.791908
0.791908
0.791908
0.791908
0.791908
0.791908
0.791908
0.791908
0.791908
0.791908
0.791908
0.791908
0.791908
0.791908
0.791908
0.791908
0.791908
0.791908
0.791908
0.791908
0.791908
0.791908
0.791908
0.791908
0.791908
0.791908
0.791908
0.791908
0.791908
0.791908
0.791908
0.791908
0.791908
0.791908
0.791908
0.791908
0.791908
0.791908
0.791908
0.791908
0.791908
0.791908
0.791908
0.791908
0.791908
0.791908
0.791908
0.791908
0.791908
0.791908
0.791908
0.791908
0.791908
0.791908
0.791908
0.791908
0.791908
0.791908
0.791908
0.791908
0.791908
0.791908
0.791908
0.791908
0.791908
0.791908
0.791908
0.791908
0.791908
0.791908
0.791908
0.791908
0.791908
0.791908
0.791908
0.791908
0.791908
0.791908
0.791908
0.791908
0.791908
0.791908
0.791908
0.791908
0.791908
0.791908
0.791908
0.791908
0.791908
0.791908
0.791908
0.791908
0.791908
0.791908
0.791908
0.791908
0.791908
0.791908
0.791908
0.791908
0.791908
0.791908
0.791908
0.791908
0.791908
0.791908
0.791908
0.791908
0.791908
0.791908
0.791908
0.791908
0.791908
0.791908
0.791908
0.791908
0.791908
0.791908
0.791908
0.791908
0.791908
0.791908
0.791908
0.791908
0.791908
0.791908
0.791908
0.791908
0.791908
0.791908
0.791908
0.791908
0.791908
0.791908
0.791908
0.791908
0.791908
0.791908
0.791908
0.791908
0.791908
0.791908
0.791908
0.791908
0.791908
0.791908
0.791908
0.791908
0.791908
0.791908
0.791908
0.791908
0.791908
0.791908
0.791908
0.791908
0.791908
0.791908
0.791908
0.791908
0.791908
0.791908
0.791908
0.791908
0.791908
0.791908
0.791908
0.791908
0.791908
0.791908
0.791908
0.791908
0.791908
0.791908
0.791908
0.791908
0.791908
0.791908
0.791908
0.791908
0.791908
0.791908
0.791908
0.791908
0.791908
0.791908
0.791908
0.791908
0.791908
0.791908
0.791908
0.791908
0.791908
0.791908
0.791908
0.791908
0.791908
0.791908
0.791908
0.791908
0.791908
0.791908
0.791908
0.791908
0.791908
0.791908
0.791908
0.791908
0.791908
0.791908
0.791908
0.791908
0.791908
0.791908
0.791908
0.791908
0.791908
0.791908
0.791908
0.791908
0.791908
0.791908
0.791908
0.791908
0.791908
0.791908
0.791908
0.791908
0.791908
0.791908
0.791908
0.791908
0.791908
0.791908
0.791908
0.791908
0.791908
0.791908
0.791908
0.791908
0.791908
0.791908
0.791908
0.791908
0.791908
0.791908
0.791908
0.791908
0.791908
0.791908
0.791908
0.791908
0.791908
0.791908
0.791908
0.791908
0.791908
0.791908
0.791908
0.791908
0.791908
0.791908
0.791908
0.791908
0.791908
0.791908
0.791908
0.791908
0.791908
0.791908
0.791908
0.791908
0.791908
0.791908
0.791908
0.791908
0.791908
0.791908
0.791908
0.791908
0.791908
0.791908
0.791908
0.791908
0.791908
0.791908
0.791908
0.791908
0.791908
0.791908
0.791908
0.791908
0.791908
0.791908
0.791908
0.791908
0.791908
0.791908
0.791908
0.791908
0.791908
0.791908
0.791908
0.791908
0.791908
0.791908
0.791908
0.791908
0.791908
0.791908
0.791908
0.791908
0.791908
0.791908
0.791908
0.791908
0.791908
0.791908
0.791908
0.791908
0.791908
0.791908
0.791908
0.791908
0.791908
0.791908
0.791908
0.791908
0.791908
0.791908
0.791908
0.791908
0.791908
0.791908
0.791908
0.791908
0.791908
0.791908
0.791908
0.791908
0.791908
0.791908
0.791908
0.791908
0.791908
0.791908
0.791908
0.791908
0.791908
0.791908
0.791908
0.791908
0.791908
0.791908
0.791908
0.791908
0.791908
0.791908
0.791908
0.791908
0.791908
0.791908
0.791908
0.791908
0.791908
0.791908
0.791908
0.791908
0.791908
0.791908
0.791908
0.791908
0.791908
0.791908
0.791908
0.791908
0.791908
0.791908
0.791908
0.791908
0.791908
0.791908
0.791908
0.791908
0.791908
0.791908
0.791908
0.791908
0.791908
0.791908
0.791908
0.791908
0.791908
0.791908
0.791908
0.791908
0.791908
0.791908
0.791908
0.791908
0.791908
0.791908
0.791908
0.791908
0.791908
0.791908
0.791908
0.791908
0.791908
0.791908
0.791908
0.791908
0.791908
0.791908
0.791908
0.791908
0.791908
0.791908
0.791908
0.791908
0.791908
0.791908
0.791908
0.791908
0.791908
0.791908
0.791908
0.791908
0.791908
0.791908
0.791908
0.791908
0.791908
0.791908
0.791908
0.791908
0.791908
0.791908
0.791908
0.791908
0.791908
0.791908
0.791908
0.791908
0.791908
0.791908
0.791908
0.791908
0.791908
0.791908
0.791908
0.791908
0.791908
0.791908
0.791908
0.791908
0.791908
0.791908
0.791908
0.791908
0.791908
0.791908
0.791908
0.791908
0.791908
0.791908
0.791908
0.791908
0.791908
0.791908
0.791908
0.791908
0.791908
0.791908
0.791908
0.791908
0.791908
0.791908
0.791908
0.791908
0.791908
0.791908
0.791908
0.791908
0.791908
0.791908
0.791908
0.791908
0.791908
0.791908
0.791908
0.791908
0.791908
0.791908
0.791908
0.791908
0.791908
0.791908
0.791908
0.791908
0.791908
0.791908
0.791908
0.791908
0.791908
0.791908
0.791908
0.791908
0.791908
0.791908
0.791908
0.791908
0.791908
0.791908
0.791908
0.791908
0.791908
0.791908
0.791908
0.791908
0.791908
0.791908
0.791908
0.791908
0.791908
0.791908
0.791908
0.791908
0.791908
0.791908
0.791908
0.791908
0.791908
0.791908
0.791908
0.791908
0.791908
0.791908
0.791908
0.791908
0.791908
0.791908
0.791908
0.791908
0.791908
0.791908
0.791908
0.791908
0.791908
0.791908
0.791908
0.791908
0.791908
0.791908
0.791908
0.791908
0.791908
0.791908
0.791908
0.791908
0.812584
0.831206
0.831206
0.831206
0.831206
0.831206
0.831206
0.831206
0.831206
0.831206
0.831206
0.831206
0.831206
0.831206
0.831206
0.831206
0.831206
0.831206
0.831206
0.831206
0.831206
0.831206
0.831206
0.831206
0.831206
0.831206
0.831206
0.831206
0.831206
0.831206
0.831206
0.831206
0.831206
0.831206
0.831206
0.831206
0.831206
0.831206
0.831206
0.831206
0.831206
0.831206
0.831206
0.831206
0.831206
0.831206
0.831206
0.831206
0.831206
0.831206
0.831206
0.831206
0.831206
0.831206
0.831206
0.831206
0.831206
0.831206
0.831206
0.831206
0.831206
0.831206
0.831206
0.831206
0.831206
0.831206
0.831206
0.831206
0.831206
0.831206
0.831206
0.831206
0.831206
0.831206
0.831206
0.831206
0.831206
0.831206
0.831206
0.831206
0.831206
0.831206
0.831206
0.831206
0.831206
0.831206
0.831206
0.831206
0.831206
0.831206
0.831206
0.831206
0.831206
0.831206
0.831206
0.831206
0.831206
0.831206
0.831206
0.831206
0.831206
0.831206
0.831206
0.831206
0.831206
0.831206
0.831206
0.831206
0.831206
0.831206
0.831206
0.831206
0.831206
0.831206
0.831206
0.831206
0.831206
0.831206
0.831206
0.831206
0.831206
0.831206
0.831206
0.831206
0.831206
0.831206
0.831206
0.831206
0.831206
0.831206
0.831206
0.831206
0.831206
0.831206
0.831206
0.831206
0.831206
0.831206
0.831206
0.831206
0.831206
0.831206
0.831206
0.831206
0.831206
0.831206
0.831206
0.831206
0.831206
0.831206
0.831206
0.831206
0.831206
0.831206
0.831206
0.831206
0.863083
0.863083
0.863083
0.863083
0.863083
0.863083
0.863083
0.863083
0.863083
0.863083
0.863083
0.863083
0.863083
0.863083
0.863083
0.863083
0.863083
0.863083
0.863083
0.863083
0.863083
0.863083
0.863083
0.863083
0.863083
0.863083
0.863083
0.863083
0.863083
0.863083
0.863083
0.863083
0.863083
0.863083
0.863083
0.863083
0.863083
0.863083
0.863083
0.863083
0.863083
0.863083
0.863083
0.863083
0.863083
0.863083
0.863083
0.863083
0.863083
0.863083
0.863083
0.863083
0.863083
0.863083
0.863083
0.863083
0.863083
0.863083
0.863083
0.863083
0.863083
0.863083
0.863083
0.863083
0.863083
0.863083
0.863083
0.863083
0.863083
0.863083
0.863083
0.863083
0.863083
0.863083
0.863083
0.863083
0.863083
0.863083
0.863083
0.863083
0.863083
0.863083
0.863083
0.863083
0.863083
0.863083
0.863083
0.863083
0.863083
0.863083
0.863083
0.863083
0.863083
0.863083
0.863083
0.863083
0.863083
0.863083
0.863083
0.863083
0.863083
0.863083
0.863083
0.863083
0.863083
0.863083
0.863083
0.863083
0.863083
0.863083
0.863083
0.863083
0.863083
0.863083
0.863083
0.863083
0.863083
0.863083
0.863083
0.863083
0.863083
0.863083
0.863083
0.863083
0.863083
0.863083
0.863083
0.863083
0.863083
0.863083
0.863083
0.863083
0.863083
0.863083
0.863083
0.863083
0.863083
0.863083
0.863083
0.863083
0.863083
0.863083
0.863083
0.863083
0.863083
0.863083
0.863083
0.863083
0.863083
0.863083
0.863083
0.863083
0.863083
0.863083
0.863083
0.863083
0.863083
0.863083
0.863083
0.863083
0.863083
0.863083
0.863083
0.863083
0.863083
0.863083
0.863083
0.863083
0.863083
0.863083
0.863083
0.863083
0.863083
0.863083
0.863083
0.863083
0.863083
0.863083
0.863083
0.863083
0.863083
0.863083
0.863083
0.863083
0.863083
0.863083
0.863083
0.863083
0.863083
0.863083
0.863083
0.863083
0.863083
0.863083
0.863083
0.863083
0.863083
0.863083
0.863083
0.863083
0.863083
0.863083
0.863083
0.863083
0.863083
0.863083
0.863083
0.863083
0.863083
0.863083
0.863083
0.863083
0.863083
0.863083
0.863083
0.863083
0.863083
0.863083
0.863083
0.863083
0.863083
0.863083
0.863083
0.863083
0.863083
0.863083
0.863083
0.863083
0.863083
0.863083
0.863083
0.863083
0.863083
0.863083
0.863083
0.863083
0.863083
0.863083
0.863083
0.863083
0.863083
0.863083
0.863083
0.863083
0.863083
0.863083
0.863083
0.863083
0.863083
0.863083
0.863083
0.863083
0.863083
0.863083
0.863083
0.863083
0.863083
0.863083
0.863083
0.863083
0.863083
0.863083
0.863083
0.863083
0.863083
0.863083
0.863083
0.863083
0.863083
0.863083
0.863083
0.863083
0.863083
0.863083
0.863083
0.863083
0.863083
0.863083
0.863083
0.863083
0.863083
0.863083
0.863083
0.863083
0.863083
0.863083
0.863083
0.863083
0.863083
0.863083
0.863083
0.863083
0.863083
0.863083
0.863083
0.863083
0.863083
0.863083
0.863083
0.863083
0.863083
0.863083
0.863083
0.863083
0.863083
0.863083
0.863083
0.863083
0.863083
0.863083
0.863083
0.863083
0.863083
0.863083
0.863083
0.863083
0.863083
0.863083
0.863083
0.863083
0.863083
0.863083
0.863083
0.863083
0.863083
0.863083
0.863083
0.863083
0.863083
0.863083
0.863083
0.863083
0.863083
0.863083
0.863083
0.863083
0.863083
0.863083
0.863083
0.863083
0.863083
0.863083
0.863083
0.863083
0.863083
0.863083
0.863083
0.863083
0.863083
0.863083
0.863083
0.863083
0.863083
0.863083
0.863083
0.863083
0.863083
0.863083
0.863083
0.863083
0.863083
0.863083
0.863083
0.863083
0.863083
0.863083
0.863083
0.863083
0.863083
0.863083
0.863083
0.863083
0.863083
0.863083
0.863083
0.863083
0.863083
0.863083
0.863083
0.863083
0.863083
0.863083
0.863083
0.863083
0.863083
0.863083
0.863083
0.863083
0.863083
0.863083
0.863083
0.863083
0.863083
0.863083
0.863083
0.863083
0.863083
0.863083
0.863083
0.863083
0.863083
0.863083
0.863083
0.863083
0.863083
0.863083
0.863083
0.863083
0.863083
0.863083
0.863083
0.863083
0.863083
0.863083
0.863083
0.863083
0.863083
0.863083
0.863083
0.863083
0.863083
0.863083
0.863083
0.863083
0.863083
0.863083
0.863083
0.863083
0.863083
0.863083
0.863083
0.863083
0.863083
0.863083
0.863083
0.863083
0.863083
0.863083
0.863083
0.863083
0.863083
0.863083
0.863083
0.863083
0.863083
0.863083
0.863083
0.863083
0.863083
0.863083
0.863083
0.863083
0.863083
0.863083
0.863083
0.863083
0.863083
0.863083
0.863083
0.863083
0.863083
0.863083
0.863083
0.863083
0.863083
0.863083
0.863083
0.863083
0.863083
0.863083
0.863083
0.863083
0.863083
0.863083
0.863083
0.863083
0.863083
0.863083
0.863083
0.863083
0.863083
0.863083
0.863083
0.863083
0.863083
0.863083
0.863083
0.863083
0.863083
0.863083
0.863083
0.863083
0.863083
0.863083
0.863083
0.863083
0.863083
0.863083
0.863083
0.863083
0.863083
0.863083
0.863083
0.863083
0.863083
0.863083
0.863083
0.863083
0.863083
0.863083
0.863083
0.863083
0.863083
0.863083
0.863083
0.863083
0.863083
0.863083
0.863083
0.863083
0.863083
0.863083
0.863083
0.863083
0.863083
0.863083
0.863083
0.863083
0.863083
0.863083
0.863083
0.863083
0.863083
0.863083
0.863083
0.863083
0.863083
0.863083
0.863083
0.863083
0.863083
0.863083
0.863083
0.863083
0.863083
0.863083
0.863083
0.863083
0.863083
0.863083
0.863083
0.863083
0.863083
0.863083
0.863083
0.863083
0.863083
0.863083
0.863083
0.863083
0.863083
0.863083
0.863083
0.863083
0.863083
0.863083
0.863083
0.863083
0.863083
0.863083
0.863083
0.863083
0.863083
0.863083
0.863083
0.863083
0.863083
0.863083
0.863083
0.863083
0.863083
0.863083
0.863083
0.863083
0.863083
0.863083
0.863083
0.863083
0.863083
0.863083
0.863083
0.863083
0.863083
0.863083
0.863083
0.863083
0.863083
0.863083
0.863083
0.863083
0.863083
0.863083
0.863083
0.863083
0.863083
0.863083
0.863083
0.863083
0.863083
0.863083
0.863083
0.863083
0.863083
0.863083
0.863083
0.863083
0.863083
0.863083
0.863083
0.863083
0.863083
0.863083
0.863083
0.863083
0.863083
0.863083
0.863083
0.863083
0.863083
0.863083
0.863083
0.863083
0.863083
0.863083
0.863083
0.863083
0.863083
0.863083
0.863083
0.863083
0.863083
0.863083
0.863083
0.863083
0.863083
0.863083
0.863083
0.863083
0.863083
0.863083
0.863083
0.863083
0.863083
0.863083
0.863083
0.863083
0.863083
0.863083
0.863083
0.863083
0.863083
0.863083
0.863083
0.863083
0.863083
0.863083
0.863083
0.863083
0.863083
0.863083
0.863083
0.863083
0.863083
0.863083
0.863083
0.863083
0.863083
0.863083
0.863083
0.863083
0.863083
0.863083
0.863083
0.863083
0.863083
0.863083
0.863083
0.863083
0.863083
0.863083
0.863083
0.863083
0.863083
0.863083
0.863083
0.863083
0.863083
0.863083
0.863083
0.863083
0.863083
0.863083
0.863083
0.863083
0.863083
0.863083
0.863083
0.863083
0.863083
0.863083
0.863083
0.863083
0.863083
0.863083
0.863083
0.863083
0.863083
0.863083
0.863083
0.863083
0.863083
0.863083
0.863083
0.863083
0.863083
0.863083
0.863083
0.863083
0.863083
0.863083
0.863083
0.863083
0.863083
0.863083
0.863083
0.863083
0.863083
0.863083
0.863083
0.863083
0.863083
0.863083
0.863083
0.863083
0.863083
0.863083
0.863083
0.863083
0.863083
0.863083
0.863083
0.863083
0.863083
0.863083
0.863083
0.863083
0.863083
0.863083
0.863083
0.863083
0.863083
0.863083
0.863083
0.863083
0.863083
0.863083
0.863083
0.863083
0.863083
0.863083
0.863083
0.863083
0.863083
0.863083
0.863083
0.863083
0.863083
0.863083
0.863083
0.863083
0.863083
0.863083
0.863083
0.863083
0.863083
0.863083
0.863083
0.863083
0.863083
0.863083
0.863083
0.863083
0.863083
0.863083
0.863083
0.863083
0.863083
0.863083
0.863083
0.863083
0.863083
0.863083
0.863083
0.863083
0.863083
0.863083
0.863083
0.863083
0.863083
0.863083
0.863083
0.863083
0.863083
0.863083
0.863083
0.863083
0.863083
0.863083
0.863083
0.863083
0.863083
0.863083
0.863083
0.863083
0.863083
0.863083
0.863083
0.863083
0.863083
0.863083
0.863083
0.863083
0.863083
0.863083
0.863083
0.863083
0.863083
0.863083
0.863083
0.863083
0.863083
0.863083
0.863083
0.863083
0.863083
0.863083
0.863083
0.863083
0.863083
0.863083
0.863083
0.863083
0.863083
0.863083
0.863083
0.863083
0.863083
0.863083
0.863083
0.863083
0.863083
0.863083
0.863083
0.863083
0.863083
0.863083
0.863083
0.863083
0.863083
0.863083
0.863083
0.863083
0.863083
0.863083
0.863083
0.863083
0.863083
0.863083
0.863083
0.863083
0.863083
0.863083
0.863083
0.863083
0.863083
0.863083
0.863083
0.863083
0.863083
0.863083
0.863083
0.863083
0.863083
0.863083
0.863083
0.863083
0.863083
0.863083
0.863083
0.863083
0.863083
0.863083
0.863083
0.863083
0.863083
0.863083
0.863083
0.863083
0.863083
0.863083
0.863083
0.863083
0.863083
0.863083
0.863083
0.863083
0.863083
0.863083
0.863083
0.863083
0.863083
0.863083
0.863083
0.863083
0.863083
0.863083
0.863083
0.863083
0.863083
0.863083
0.863083
0.863083
0.863083
0.863083
0.863083
0.863083
0.863083
0.863083
0.863083
0.863083
0.863083
0.863083
0.863083
0.863083
0.863083
0.863083
0.863083
0.863083
0.863083
0.863083
0.863083
0.863083
0.863083
0.863083
0.863083
0.863083
0.863083
0.863083
0.863083
0.863083
0.863083
0.863083
0.863083
0.863083
0.863083
0.863083
0.863083
0.863083
0.863083
0.863083
0.863083
0.863083
0.863083
0.863083
0.863083
0.863083
0.863083
0.863083
0.863083
0.863083
0.863083
0.863083
0.863083
0.863083
0.863083
0.863083
0.863083
0.863083
0.863083
0.863083
0.863083
0.863083
0.863083
0.863083
0.863083
0.863083
0.863083
0.863083
0.863083
0.863083
0.863083
0.863083
0.863083
0.863083
0.863083
0.863083
0.863083
0.863083
0.863083
0.863083
0.863083
0.863083
0.863083
0.863083
0.863083
0.863083
0.863083
0.863083
0.863083
0.863083
0.863083
0.863083
0.863083
0.863083
0.863083
0.863083
0.863083
0.863083
0.863083
0.863083
0.863083
0.863083
0.863083
0.863083
0.863083
0.863083
0.863083
0.863083
0.863083
0.863083
0.863083
0.863083
0.863083
0.863083
0.863083
0.863083
0.863083
0.863083
0.863083
0.863083
0.863083
0.863083
0.863083
0.863083
0.863083
0.863083
0.863083
0.863083
0.863083
0.863083
0.863083
0.863083
0.863083
0.863083
0.863083
0.863083
0.863083
0.863083
0.863083
0.863083
0.863083
0.863083
0.863083
0.863083
0.863083
0.863083
0.863083
0.863083
0.863083
0.863083
0.863083
0.863083
0.863083
0.863083
0.863083
0.863083
0.863083
0.863083
0.863083
0.863083
0.863083
0.863083
0.863083
0.863083
0.863083
0.863083
0.863083
0.863083
0.863083
0.863083
0.863083
0.863083
0.863083
0.863083
0.863083
0.863083
0.863083
0.863083
0.863083
0.863083
0.863083
0.863083
0.863083
0.863083
0.863083
0.863083
0.863083
0.863083
0.863083
0.863083
0.863083
0.863083
0.863083
0.863083
0.863083
0.863083
0.863083
0.863083
0.863083
0.863083
0.863083
0.863083
0.863083
0.863083
0.863083
0.863083
0.863083
0.863083
0.863083
0.863083
0.863083
0.863083
0.863083
0.863083
0.863083
0.863083
0.863083
0.863083
0.863083
0.863083
0.863083
0.863083
0.863083
0.863083
0.863083
0.863083
0.863083
0.863083
0.863083
0.863083
0.863083
0.863083
0.863083
0.863083
0.863083
0.863083
0.863083
0.863083
0.863083
0.863083
0.863083
0.863083
0.863083
0.863083
0.863083
0.863083
0.863083
0.863083
0.863083
0.863083
0.863083
0.863083
0.863083
0.863083
0.863083
0.863083
0.863083
0.863083
0.863083
0.863083
0.863083
0.863083
0.863083
0.863083
0.863083
0.863083
0.863083
0.863083
0.863083
0.863083
0.863083
0.863083
0.863083
0.863083
0.863083
0.863083
0.863083
0.863083
0.863083
0.863083
0.863083
0.863083
0.863083
0.863083
0.863083
0.863083
0.863083
0.863083
0.863083
0.863083
0.863083
0.863083
0.863083
0.863083
0.863083
0.863083
0.863083
0.863083
0.863083
0.863083
0.863083
0.863083
0.863083
0.863083
0.863083
0.863083
0.863083
0.863083
0.863083
0.863083
0.863083
0.863083
0.863083
0.863083
0.863083
0.863083
0.863083
0.863083
0.863083
0.863083
0.863083
0.863083
0.863083
0.863083
0.863083
0.863083
0.863083
0.863083
0.863083
0.863083
0.863083
0.863083
0.863083
0.863083
0.863083
0.863083
0.863083
0.863083
0.863083
0.863083
0.863083
0.863083
0.863083
0.863083
0.863083
0.863083
0.863083
0.863083
0.863083
0.863083
0.863083
0.863083
0.863083
0.863083
0.863083
0.863083
0.863083
0.863083
0.863083
0.863083
0.863083
0.863083
0.863083
0.863083
0.863083
0.863083
0.863083
0.863083
0.863083
0.863083
0.863083
0.863083
0.863083
0.863083
0.863083
0.863083
0.863083
0.863083
0.863083
0.863083
0.863083
0.863083
0.863083
0.863083
0.863083
0.863083
0.863083
0.863083
0.863083
0.863083
0.863083
0.863083
0.863083
0.863083
0.863083
0.863083
0.863083
0.863083
0.863083
0.863083
0.863083
0.863083
0.863083
0.863083
0.863083
0.863083
0.863083
0.863083
0.863083
0.863083
0.863083
0.863083
0.863083
0.863083
0.863083
0.863083
0.863083
0.863083
0.863083
0.863083
0.863083
0.863083
0.863083
0.863083
0.863083
0.863083
0.863083
0.863083
0.863083
0.863083
0.863083
0.863083
0.863083
0.863083
0.863083
0.863083
0.863083
0.863083
0.863083
0.863083
0.863083
0.863083
0.863083
0.863083
0.863083
0.863083
0.863083
0.863083
0.863083
0.863083
0.863083
0.863083
0.863083
0.863083
0.863083
0.863083
0.863083
0.863083
0.863083
0.863083
0.863083
0.863083
0.863083
0.863083
0.863083
0.863083
0.863083
0.863083
0.863083
0.863083
0.863083
0.863083
0.863083
0.863083
0.863083
0.863083
0.863083
0.863083
0.863083
0.863083
0.863083
0.863083
0.863083
0.863083
0.863083
0.863083
0.863083
0.863083
0.863083
0.863083
0.863083
0.863083
0.863083
0.863083
0.863083
0.863083
0.863083
0.863083
0.863083
0.863083
0.863083
0.863083
0.863083
0.863083
0.863083
0.863083
0.863083
0.863083
0.863083
0.863083
0.863083
0.863083
0.863083
0.863083
0.863083
0.863083
0.863083
0.863083
0.863083
0.863083
0.863083
0.863083
0.863083
0.863083
0.863083
0.863083
0.863083
0.863083
0.863083
0.863083
0.863083
0.863083
0.863083
0.863083
0.863083
0.863083
0.863083
0.863083
0.863083
0.863083
0.863083
0.863083
0.863083
0.863083
0.863083
0.863083
0.863083
0.863083
0.863083
0.863083
0.863083
0.863083
0.863083
0.863083
0.863083
0.863083
0.863083
0.863083
0.863083
0.863083
0.863083
0.863083
0.863083
0.863083
0.863083
0.863083
0.863083
0.863083
0.863083
0.863083
0.863083
0.863083
0.863083
0.863083
0.863083
0.863083
0.863083
0.863083
0.863083
0.863083
0.863083
0.863083
0.863083
0.863083
0.863083
0.863083
0.863083
0.863083
0.863083
0.863083
0.863083
0.863083
0.863083
0.863083
0.863083
0.863083
0.863083
0.863083
0.863083
0.863083
0.863083
0.863083
0.863083
0.863083
0.863083
0.863083
0.863083
0.863083
0.863083
0.863083
0.863083
0.863083
0.863083
0.863083
0.863083
0.863083
0.863083
0.863083
0.863083
0.863083
0.863083
0.863083
0.863083
0.863083
0.863083
0.863083
0.863083
0.863083
0.863083
0.863083
0.863083
0.863083
0.863083
0.863083
0.863083
0.863083
0.863083
0.863083
0.863083
0.863083
0.863083
0.863083
0.863083
0.863083
0.863083
0.863083
0.863083
0.863083
0.863083
0.863083
0.863083
0.863083
0.863083
0.863083
0.863083
0.863083
0.863083
0.863083
0.863083
0.863083
0.863083
0.863083
0.863083
0.863083
0.863083
0.863083
0.863083
0.863083
0.863083
0.863083
0.863083
0.863083
0.863083
0.863083
0.863083
0.863083
0.863083
0.863083
0.863083
0.863083
0.863083
0.863083
0.863083
0.863083
0.863083
0.863083
0.863083
0.863083
0.863083
0.863083
0.863083
0.863083
0.863083
0.863083
0.863083
0.863083
0.863083
0.863083
0.863083
0.863083
0.863083
0.863083
0.863083
0.863083
0.863083
0.863083
0.863083
0.863083
0.863083
0.863083
0.863083
0.863083
0.863083
0.863083
0.863083
0.863083
0.863083
0.863083
0.863083
0.863083
0.863083
0.863083
0.863083
0.863083
0.863083
0.863083
0.863083
0.863083
0.863083
0.863083
0.863083
0.863083
0.863083
0.863083
0.863083
0.863083
0.863083
0.863083
0.863083
0.863083
0.863083
0.863083
0.863083
0.863083
0.863083
0.863083
0.863083
0.863083
0.863083
0.863083
0.863083
0.863083
0.863083
0.863083
0.863083
0.863083
0.863083
0.863083
0.863083
0.863083
0.863083
0.863083
0.863083
0.863083
0.863083
0.863083
0.863083
0.863083
0.863083
0.863083
0.863083
0.863083
0.863083
0.863083
0.863083
0.863083
0.863083
0.863083
0.863083
0.863083
0.863083
0.863083
0.863083
0.863083
0.863083
0.863083
0.863083
0.863083
0.863083
0.863083
0.863083
0.863083
0.863083
0.863083
0.863083
0.863083
0.863083
0.863083
0.863083
0.863083
0.863083
0.863083
0.863083
0.863083
0.863083
0.863083
0.863083
0.863083
0.863083
0.863083
0.863083
0.863083
0.863083
0.863083
0.863083
0.863083
0.863083
0.863083
0.863083
0.863083
0.863083
0.863083
0.863083
0.863083
0.863083
0.863083
0.863083
0.863083
0.863083
0.863083
0.863083
0.863083
0.863083
0.863083
0.863083
0.863083
0.863083
0.863083
0.863083
0.863083
0.863083
0.863083
0.863083
0.863083
0.863083
0.863083
0.863083
0.863083
0.863083
0.863083
0.863083
0.863083
0.863083
0.863083
0.863083
0.863083
0.863083
0.863083
0.863083
0.863083
0.863083
0.863083
0.863083
0.863083
0.863083
0.863083
0.863083
0.863083
0.863083
0.863083
0.863083
0.863083
0.863083
0.863083
0.863083
0.863083
0.863083
0.863083
0.863083
0.863083
0.863083
0.863083
0.863083
0.863083
0.863083
0.863083
0.863083
0.863083
0.863083
0.863083
0.863083
0.863083
0.863083
0.863083
0.863083
0.863083
0.863083
0.863083
0.863083
0.863083
0.863083
0.863083
0.863083
0.863083
0.863083
0.863083
0.863083
0.863083
0.863083
0.863083
0.863083
0.863083
0.863083
0.863083
0.863083
0.863083
0.863083
0.863083
0.863083
0.863083
0.863083
0.863083
0.863083
0.863083
0.863083
0.863083
0.863083
0.863083
0.863083
0.863083
0.863083
0.863083
0.863083
0.863083
0.863083
0.863083
0.863083
0.863083
0.863083
0.863083
0.863083
0.863083
0.863083
0.863083
0.863083
0.863083
0.863083
0.863083
0.863083
0.863083
0.863083
0.863083
0.863083
0.863083
0.863083
0.863083
0.863083
0.863083
0.863083
0.863083
0.863083
0.863083
0.863083
0.863083
0.863083
0.863083
0.863083
0.863083
0.863083
0.863083
0.863083
0.863083
0.863083
0.863083
0.863083
0.863083
0.863083
0.863083
0.863083
0.863083
0.863083
0.863083
0.863083
0.863083
0.863083
0.863083
0.863083
0.863083
0.863083
0.863083
0.863083
0.863083
0.863083
0.863083
0.863083
0.863083
0.863083
0.863083
0.863083
0.863083
0.863083
0.863083
0.863083
0.863083
0.863083
0.863083
0.863083
0.863083
0.863083
0.863083
0.863083
0.863083
0.863083
0.863083
0.863083
0.863083
0.863083
0.863083
0.863083
0.863083
0.863083
0.863083
0.863083
0.863083
0.863083
0.863083
0.863083
0.863083
0.863083
0.863083
0.863083
0.863083
0.863083
0.863083
0.863083
0.863083
0.863083
0.863083
0.863083
0.863083
0.863083
0.863083
0.863083
0.863083
0.863083
0.863083
0.863083
0.863083
0.863083
0.863083
0.863083
0.863083
0.863083
0.863083
0.863083
0.863083
0.863083
0.863083
0.863083
0.863083
0.863083
0.863083
0.863083
0.863083
0.863083
0.863083
0.863083
0.863083
0.863083
0.863083
0.863083
0.863083
0.863083
0.863083
0.863083
0.863083
0.863083
0.863083
0.863083
0.863083
0.863083
0.863083
0.863083
0.863083
0.863083
0.863083
0.863083
0.863083
0.863083
0.863083
0.863083
0.863083
0.863083
0.863083
0.863083
0.863083
0.863083
0.863083
0.863083
0.863083
0.863083
0.863083
0.863083
0.863083
0.863083
0.863083
0.863083
0.863083
0.863083
0.863083
0.863083
0.863083
0.863083
0.863083
0.863083
0.863083
0.863083
0.863083
0.863083
0.863083
0.863083
0.863083
0.863083
0.863083
0.863083
0.863083
0.863083
0.863083
0.863083
0.863083
0.863083
0.863083
0.863083
0.863083
0.863083
0.863083
0.863083
0.863083
0.863083
0.863083
0.863083
0.863083
0.863083
0.863083
0.863083
0.863083
0.863083
0.863083
0.863083
0.863083
0.863083
0.863083
0.863083
0.863083
0.863083
0.863083
0.863083
0.863083
0.863083
0.863083
0.863083
0.863083
0.863083
0.863083
0.863083
0.863083
0.863083
0.863083
0.863083
0.863083
0.863083
0.863083
0.863083
0.863083
0.863083
0.863083
0.863083
0.863083
0.863083
0.863083
0.863083
0.863083
0.863083
0.863083
0.863083
0.863083
0.863083
0.863083
0.863083
0.863083
0.863083
0.863083
0.863083
0.863083
0.863083
0.863083
0.863083
0.863083
0.863083
0.863083
0.863083
0.863083
0.863083
0.863083
0.863083
0.863083
0.863083
0.863083
0.863083
0.863083
0.863083
0.863083
0.863083
0.863083
0.863083
0.863083
0.863083
0.863083
0.863083
0.863083
0.863083
0.863083
0.863083
0.863083
0.863083
0.863083
0.863083
0.863083
0.863083
0.863083
0.863083
0.863083
0.863083
0.863083
0.863083
0.863083
0.863083
0.863083
0.863083
0.863083
0.863083
0.863083
0.863083
0.863083
0.863083
0.863083
0.863083
0.863083
0.863083
0.863083
0.863083
0.863083
0.863083
0.863083
0.863083
0.863083
0.863083
0.863083
0.863083
0.863083
0.863083
0.863083
0.863083
0.863083
0.863083
0.863083
0.863083
0.863083
0.863083
0.863083
0.863083
0.863083
0.863083
0.863083
0.863083
0.863083
0.863083
0.863083
0.863083
0.863083
0.863083
0.863083
0.863083
0.863083
0.863083
0.863083
0.863083
0.863083
0.863083
0.863083
0.863083
0.863083
0.863083
0.863083
0.863083
0.863083
0.863083
0.863083
0.863083
0.863083
0.863083
0.863083
0.863083
0.863083
0.863083
0.863083
0.863083
0.863083
0.863083
0.863083
0.863083
0.863083
0.863083
0.863083
0.863083
0.863083
0.863083
0.863083
0.863083
0.863083
0.863083
0.863083
0.863083
0.863083
0.863083
0.863083
0.863083
0.863083
0.863083
0.863083
0.863083
0.863083
0.863083
0.863083
0.863083
0.863083
0.863083
0.863083
0.863083
0.863083
0.863083
0.863083
0.863083
0.863083
0.863083
0.863083
0.863083
0.863083
0.863083
0.863083
0.863083
0.863083
0.863083
0.863083
0.863083
0.863083
0.863083
0.863083
0.863083
0.863083
0.863083
0.863083
0.863083
0.863083
0.863083
0.863083
0.863083
0.863083
0.863083
0.863083
0.863083
0.863083
0.863083
0.863083
0.863083
0.863083
0.863083
0.863083
0.863083
0.863083
0.863083
0.863083
0.863083
0.863083
0.863083
0.863083
0.863083
0.863083
0.863083
0.863083
0.863083
0.863083
0.863083
0.863083
0.863083
0.863083
0.863083
0.863083
0.863083
0.863083
0.863083
0.863083
0.863083
0.863083
0.863083
0.863083
0.863083
0.863083
0.863083
0.863083
0.863083
0.863083
0.863083
0.863083
0.863083
0.863083
0.863083
0.863083
0.863083
0.863083
0.863083
0.863083
0.863083
0.863083
0.863083
0.863083
0.863083
0.863083
0.863083
0.863083
0.863083
0.863083
0.863083
0.863083
0.863083
0.863083
0.863083
0.863083
0.863083
0.863083
0.863083
0.863083
0.863083
0.863083
0.863083
0.863083
0.863083
0.863083
0.863083
0.863083
0.863083
0.863083
0.863083
0.863083
0.863083
0.863083
0.863083
0.863083
0.863083
0.863083
0.863083
0.863083
0.863083
0.863083
0.863083
0.863083
0.863083
0.863083
0.863083
0.863083
0.863083
0.863083
0.863083
0.863083
0.863083
0.863083
0.863083
0.863083
0.863083
0.863083
0.863083
0.863083
0.863083
0.863083
0.863083
0.863083
0.863083
0.863083
0.863083
0.863083
0.863083
0.863083
0.863083
0.863083
0.863083
0.863083
0.863083
0.863083
0.863083
0.863083
0.863083
0.863083
0.863083
0.863083
0.863083
0.863083
0.863083
0.863083
0.876687
0.876687
0.876687
0.876687
0.876687
0.876687
0.876687
0.876687
0.876687
0.876687
0.876687
0.876687
0.876687
0.876687
0.876687
0.876687
0.876687
0.876687
0.876687
0.876687
0.876687
0.876687
0.876687
0.876687
0.876687
0.876687
0.876687
0.876687
0.876687
0.876687
0.876687
0.876687
0.876687
0.876687
0.876687
0.876687
0.876687
0.876687
0.876687
0.876687
0.876687
0.876687
0.876687
0.876687
0.876687
0.876687
0.876687
0.876687
0.876687
0.876687
0.876687
0.876687
0.876687
0.876687
0.876687
0.876687
0.876687
0.876687
0.876687
0.876687
0.876687
0.876687
0.876687
0.876687
0.876687
0.876687
0.876687
0.876687
0.876687
0.876687
0.876687
0.876687
0.876687
0.876687
0.876687
0.876687
0.876687
0.876687
0.876687
0.876687
0.876687
0.876687
0.876687
0.876687
0.876687
0.876687
0.876687
0.876687
0.876687
0.876687
0.876687
0.876687
0.876687
0.876687
0.876687
0.876687
0.876687
0.876687
0.876687
0.876687
0.876687
0.876687
0.876687
0.876687
0.876687
0.876687
0.876687
0.876687
0.876687
0.876687
0.876687
0.876687
0.876687
0.876687
0.876687
0.876687
0.876687
0.876687
0.876687
0.876687
0.876687
0.876687
0.876687
0.876687
0.876687
0.876687
0.876687
0.876687
0.876687
0.876687
0.876687
0.876687
0.876687
0.876687
0.876687
0.876687
0.876687
0.876687
0.876687
0.876687
0.876687
0.876687
0.876687
0.876687
0.876687
0.876687
0.876687
0.876687
0.876687
0.876687
0.876687
0.876687
0.876687
0.876687
0.876687
0.876687
0.876687
0.876687
0.876687
0.876687
0.876687
0.876687
0.876687
0.876687
0.876687
0.876687
0.876687
0.876687
0.876687
0.876687
0.876687
0.876687
0.876687
0.876687
0.876687
0.876687
0.876687
0.876687
0.876687
0.876687
0.876687
0.876687
0.876687
0.876687
0.876687
0.876687
0.876687
0.876687
0.876687
0.876687
0.876687
0.876687
0.876687
0.876687
0.876687
0.876687
0.876687
0.876687
0.876687
0.876687
0.876687
0.876687
0.876687
0.876687
0.876687
0.876687
0.876687
0.876687
0.876687
0.876687
0.876687
0.876687
0.876687
0.876687
0.876687
0.876687
0.876687
0.876687
0.876687
0.876687
0.876687
0.876687
0.876687
0.876687
0.876687
0.876687
0.876687
0.876687
0.876687
0.876687
0.876687
0.876687
0.876687
0.876687
0.876687
0.876687
0.876687
0.876687
0.876687
0.876687
0.876687
0.876687
0.876687
0.876687
0.876687
0.876687
0.876687
0.876687
0.876687
0.876687
0.876687
0.876687
0.876687
0.876687
0.876687
0.876687
0.876687
0.876687
0.876687
0.876687
0.876687
0.876687
0.876687
0.876687
0.876687
0.876687
0.876687
0.876687
0.876687
0.876687
0.876687
0.876687
0.876687
0.876687
0.876687
0.876687
0.876687
0.876687
0.876687
0.876687
0.876687
0.876687
0.876687
0.876687
0.876687
0.876687
0.876687
0.876687
0.876687
0.876687
0.876687
0.876687
0.876687
0.876687
0.876687
0.876687
0.876687
0.876687
0.876687
0.876687
0.876687
0.876687
0.876687
0.876687
0.876687
0.876687
0.876687
0.876687
0.876687
0.876687
0.876687
0.876687
0.876687
0.876687
0.876687
0.876687
0.876687
0.876687
0.876687
0.876687
0.876687
0.876687
0.876687
0.876687
0.876687
0.876687
0.876687
0.876687
0.876687
0.876687
0.876687
0.876687
0.876687
0.876687
0.876687
0.876687
0.876687
0.876687
0.876687
0.876687
0.876687
0.876687
0.876687
0.876687
0.876687
0.876687
0.876687
0.876687
0.876687
0.876687
0.876687
0.876687
0.876687
0.876687
0.876687
0.876687
0.876687
0.876687
0.876687
0.876687
0.876687
0.876687
0.876687
0.876687
0.876687
0.876687
0.876687
0.876687
0.876687
0.876687
0.876687
0.876687
0.876687
0.876687
0.876687
0.876687
0.876687
0.876687
0.876687
0.876687
0.876687
0.876687
0.876687
0.876687
0.876687
0.876687
0.876687
0.876687
0.876687
0.876687
0.876687
0.876687
0.876687
0.876687
0.876687
0.876687
0.876687
0.876687
0.876687
0.876687
0.876687
0.876687
0.876687
0.876687
0.876687
0.876687
0.876687
0.876687
0.876687
0.876687
0.876687
0.876687
0.876687
0.876687
0.876687
0.876687
0.876687
0.876687
0.876687
0.876687
0.876687
0.876687
0.876687
0.876687
0.876687
0.876687
0.876687
0.876687
0.876687
0.876687
0.876687
0.876687
0.876687
0.876687
0.876687
0.876687
0.876687
0.876687
0.876687
0.876687
0.876687
0.876687
0.876687
0.876687
0.876687
0.876687
0.876687
0.876687
0.876687
0.876687
0.876687
0.876687
0.876687
0.876687
0.876687
0.876687
0.876687
0.876687
0.876687
0.876687
0.876687
0.876687
0.876687
0.876687
0.876687
0.876687
0.876687
0.876687
0.876687
0.876687
0.876687
0.876687
0.876687
0.876687
0.876687
0.876687
0.876687
0.876687
0.876687
0.876687
0.876687
0.876687
0.876687
0.876687
0.876687
0.876687
0.876687
0.876687
0.876687
0.876687
0.876687
0.876687
0.876687
0.876687
0.876687
0.876687
0.876687
0.876687
0.876687
0.876687
0.876687
0.876687
0.876687
0.876687
0.876687
0.876687
0.876687
0.876687
0.876687
0.876687
0.876687
0.876687
0.876687
0.876687
0.876687
0.876687
0.876687
0.876687
0.876687
0.876687
0.876687
0.876687
0.876687
0.876687
0.876687
0.876687
0.876687
0.876687
0.876687
0.876687
0.876687
0.876687
0.876687
0.876687
0.876687
0.876687
0.876687
0.876687
0.876687
0.876687
0.876687
0.876687
0.876687
0.876687
0.876687
0.876687
0.876687
0.876687
0.876687
0.876687
0.876687
0.876687
0.876687
0.876687
0.876687
0.876687
0.876687
0.876687
0.876687
0.876687
0.876687
0.876687
0.876687
0.876687
0.876687
0.876687
0.876687
0.876687
0.876687
0.876687
0.876687
0.876687
0.876687
0.876687
0.876687
0.876687
0.876687
0.876687
0.876687
0.876687
0.876687
0.876687
0.876687
0.876687
0.876687
0.876687
0.876687
0.876687
0.876687
0.876687
0.876687
0.876687
0.876687
0.876687
0.876687
0.876687
0.876687
0.876687
0.876687
0.876687
0.876687
0.876687
0.876687
0.876687
0.876687
0.876687
0.876687
0.876687
0.876687
0.876687
0.876687
0.876687
0.876687
0.876687
0.876687
0.876687
0.876687
0.876687
0.876687
0.876687
0.876687
0.876687
0.876687
0.876687
0.876687
0.876687
0.876687
0.876687
0.876687
0.876687
0.876687
0.876687
0.876687
0.876687
0.876687
0.876687
0.876687
0.876687
0.876687
0.876687
0.876687
0.876687
0.876687
0.876687
0.876687
0.876687
0.876687
0.876687
0.876687
0.876687
0.876687
0.876687
0.876687
0.876687
0.876687
0.876687
0.876687
0.876687
0.876687
0.876687
0.876687
0.876687
0.876687
0.876687
0.876687
0.876687
0.876687
0.876687
0.876687
0.876687
0.876687
0.876687
0.876687
0.876687
0.876687
0.876687
0.876687
0.876687
0.876687
0.876687
0.876687
0.876687
0.876687
0.876687
0.876687
0.876687
0.876687
0.876687
0.876687
0.876687
0.876687
0.876687
0.876687
0.876687
0.876687
0.876687
0.876687
0.876687
0.876687
0.876687
0.876687
0.876687
0.876687
0.876687
0.876687
0.876687
0.876687
0.876687
0.876687
0.876687
0.876687
0.876687
0.876687
0.876687
0.876687
0.876687
0.876687
0.876687
0.876687
0.876687
0.876687
0.876687
0.876687
0.876687
0.876687
0.876687
0.876687
0.876687
0.876687
0.876687
0.876687
0.876687
0.876687
0.876687
0.876687
0.876687
0.876687
0.876687
0.876687
0.876687
0.876687
0.876687
0.876687
0.876687
0.876687
0.876687
0.876687
0.876687
0.876687
0.876687
0.876687
0.876687
0.876687
0.876687
0.876687
0.876687
0.876687
0.876687
0.876687
0.876687
0.876687
0.876687
0.876687
0.876687
0.876687
0.876687
0.876687
0.876687
0.876687
0.876687
0.876687
0.876687
0.876687
0.876687
0.876687
0.876687
0.876687
0.876687
0.876687
0.876687
0.876687
0.876687
0.876687
0.876687
0.876687
0.876687
0.876687
0.876687
0.876687
0.876687
0.876687
0.876687
0.876687
0.876687
0.876687
0.876687
0.876687
0.876687
0.876687
0.876687
0.876687
0.876687
0.876687
0.876687
0.876687
0.876687
0.876687
0.876687
0.876687
0.876687
0.876687
0.876687
0.876687
0.876687
0.876687
0.876687
0.876687
0.876687
0.876687
0.876687
0.876687
0.876687
0.876687
0.876687
0.876687
0.876687
0.876687
0.876687
0.876687
0.876687
0.876687
0.876687
0.876687
0.876687
0.876687
0.876687
0.876687
0.876687
0.876687
0.876687
0.876687
0.876687
0.876687
0.876687
0.876687
0.876687
0.876687
0.876687
0.876687
0.876687
0.876687
0.876687
0.876687
0.876687
0.876687
0.876687
0.876687
0.876687
0.876687
0.876687
0.876687
0.876687
0.876687
0.876687
0.876687
0.876687
0.876687
0.876687
0.876687
0.876687
0.876687
0.876687
0.876687
0.876687
0.876687
0.876687
0.876687
0.876687
0.876687
0.876687
0.876687
0.876687
0.876687
0.876687
0.876687
0.876687
0.876687
0.876687
0.876687
0.876687
0.876687
0.876687
0.876687
0.876687
0.876687
0.876687
0.876687
0.876687
0.876687
0.876687
0.876687
0.876687
0.876687
0.876687
0.876687
0.876687
0.876687
0.876687
0.876687
0.876687
0.876687
0.876687
0.876687
0.876687
0.876687
0.876687
0.876687
0.876687
0.876687
0.876687
0.876687
0.876687
0.876687
0.876687
0.876687
0.876687
0.876687
0.876687
0.876687
0.876687
0.876687
0.876687
0.876687
0.876687
0.876687
0.876687
0.876687
0.876687
0.876687
0.876687
0.876687
0.876687
0.876687
0.876687
0.876687
0.876687
0.876687
0.876687
0.876687
0.876687
0.876687
0.876687
0.876687
0.876687
0.876687
0.876687
0.876687
0.876687
0.876687
0.876687
0.876687
0.876687
0.876687
0.876687
0.876687
0.876687
0.876687
0.876687
0.876687
0.876687
0.876687
0.876687
0.876687
0.876687
0.876687
0.876687
0.876687
0.876687
0.876687
0.876687
0.876687
0.876687
0.876687
0.876687
0.876687
0.876687
0.876687
0.876687
0.876687
0.876687
0.876687
0.876687
0.876687
0.876687
0.876687
0.876687
0.876687
0.876687
0.876687
0.876687
0.876687
