0.000000
0.000000
0.000000
0.000000
0.000000
0.000000
0.000000
0.000000
0.000000
0.000000
0.000000
0.000000
0.000000
0.000000
0.000000
0.000000
0.000000
0.000000
0.000000
0.000000
0.000000
0.000000
0.000000
0.000000
0.000000
0.000000
0.000000
0.000000
0.000000
0.000000
0.000000
0.000000
0.000000
0.000000
0.000000
0.000000
0.000000
0.000000
0.000000
0.000000
0.000000
0.000000
0.000000
0.000000
0.000000
0.000000
0.000000
0.000000
0.000000
0.000000
0.000000
0.000000
0.000000
0.000000
0.000000
0.000000
0.000000
0.000000
0.000000
0.000000
0.000000
0.000000
0.000000
0.000000
0.000000
0.000000
0.000000
0.000000
0.000000
0.000000
0.000000
0.000000
0.000000
0.000000
0.000000
0.000000
0.000000
0.000000
0.000000
0.000000
0.000000
0.000000
0.000000
0.000000
0.000000
0.000000
0.000000
0.000000
0.000000
0.000000
0.000000
0.000000
0.000000
0.000000
0.000000
0.000000
0.000000
0.000000
0.000000
0.000000
0.000000
0.000000
0.000000
0.000000
0.000000
0.000000
0.000000
0.000000
0.000000
0.000000
0.000000
0.000000
0.000000
0.000000
0.000000
0.000000
0.000000
0.000000
0.000000
0.000000
0.000000
0.000000
0.000000
0.000000
0.000000
0.000000
0.000000
0.000000
0.000000
0.000000
0.000000
0.000000
0.000000
0.000000
0.000000
0.000000
0.000000
0.000000
0.000000
0.000000
0.000000
0.000000
0.000000
0.000000
0.000000
0.000000
0.000000
0.000000
0.000000
0.000000
0.000000
0.000000
0.000000
0.000000
0.000000
0.000000
0.000000
0.000000
0.000000
0.000000
0.000000
0.000000
0.000000
0.000000
0.000000
0.000000
0.000000
0.000000
0.000000
0.000000
0.000000
0.000000
0.000000
0.000000
0.000000
0.000000
0.000000
0.000000
0.000000
0.000000
0.000000
0.000000
0.000000
0.000000
0.000000
0.000000
0.000000
0.000000
0.000000
0.000000
0.000000
0.000000
0.000000
0.000000
0.000000
0.000000
0.000000
0.000000
0.000000
0.000000
0.000000
0.000000
0.000000
0.000000
0.000000
0.000000
0.000000
0.000000
0.000000
0.000000
0.000000
0.000000
0.000000
0.000000
0.000000
0.000000
0.000000
0.000000
0.000000
0.000000
0.000000
0.000000
0.000000
0.000000
0.000000
0.000000
0.000000
0.000000
0.000000
0.000000
0.000000
0.000000
0.000000
0.000000
0.000000
0.000000
0.000000
0.000000
0.000000
0.000000
0.000000
0.000000
0.000000
0.000000
0.000000
0.000000
0.000000
0.000000
0.000000
0.000000
0.000000
0.000000
0.000000
0.000000
0.000000
0.000000
0.000000
0.000000
0.000000
0.000000
0.000000
0.000000
0.000000
0.000000
0.000000
0.000000
0.000000
0.000000
0.000000
0.000000
0.000000
0.000000
0.000000
0.000000
0.000000
0.000000
0.000000
0.000000
0.000000
0.000000
0.000000
0.000000
0.000000
0.000000
0.000000
0.000000
0.000000
0.000000
0.000000
0.000000
0.000000
0.000000
0.000000
0.000000
0.000000
0.000000
0.000000
0.000000
0.000000
0.000000
0.000000
0.000000
0.000000
0.000000
0.000000
0.000000
0.000000
0.000000
0.000000
0.000000
0.000000
0.000000
0.000000
0.000000
0.000000
0.000000
0.000000
0.000000
0.000000
0.000000
0.000000
0.000000
0.000000
0.000000
0.000000
0.000000
0.000000
0.000000
0.000000
0.000000
0.000000
0.000000
0.000000
0.000000
0.000000
0.000000
0.000000
0.000000
0.000000
0.000000
0.000000
0.000000
0.000000
0.000000
0.000000
0.000000
0.000000
0.000000
0.000000
0.000000
0.000000
0.000000
0.000000
0.000000
0.000000
0.000000
0.000000
0.000000
0.000000
0.000000
0.000000
0.000000
0.000000
0.000000
0.000000
0.000000
0.000000
0.000000
0.000000
0.000000
0.000000
0.000000
0.000000
0.000000
0.000000
0.000000
0.000000
0.000000
0.000000
0.000000
0.000000
0.000000
0.000000
0.000000
0.000000
0.000000
0.000000
0.000000
0.000000
0.000000
0.000000
0.000000
0.000000
0.000000
0.000000
0.000000
0.000000
0.000000
0.000000
0.000000
0.000000
0.000000
0.000000
0.000000
0.000000
0.000000
0.000000
0.000000
0.000000
0.000000
0.000000
0.000000
0.000000
0.000000
0.000000
0.000000
0.000000
0.000000
0.000000
0.000000
0.000000
0.000000
0.000000
0.000000
0.000000
0.000000
0.000000
0.000000
0.000000
0.000000
0.000000
0.000000
0.000000
0.000000
0.000000
0.000000
0.000000
0.000000
0.000000
0.000000
0.000000
0.000000
0.000000
0.000000
0.000000
0.000000
0.000000
0.000000
0.000000
0.000000
0.000000
0.000000
0.000000
0.000000
0.000000
0.000000
0.000000
0.000000
0.000000
0.000000
0.000000
0.000000
0.000000
0.000000
0.000000
0.000000
0.000000
0.000000
0.000000
0.000000
0.000000
0.000000
0.000000
0.000000
0.000000
0.000000
0.000000
0.000000
0.000000
0.000000
0.000000
0.000000
0.000000
0.000000
0.000000
0.000000
0.000000
0.000000
0.000000
0.000000
0.000000
0.000000
0.000000
0.000000
0.000000
0.000000
0.000000
0.000000
0.000000
0.000000
0.000000
0.000000
0.000000
0.000000
0.000000
0.000000
0.000000
0.000000
0.000000
0.000000
0.000000
0.000000
0.000000
0.000000
0.000000
0.000000
0.000000
0.000000
0.000000
0.000000
0.000000
0.000000
0.000000
0.000000
0.000000
0.000000
0.000000
0.000000
0.000000
0.000000
0.000000
0.000000
0.000000
0.000000
0.000000
0.000000
0.000000
0.000000
0.000000
0.000000
0.000000
0.000000
0.000000
0.000000
0.000000
0.000000
0.000000
0.000000
0.000000
0.000000
0.000000
0.000000
0.000000
0.000000
0.000000
0.000000
0.000000
0.000000
0.000000
0.000000
0.000000
0.000000
0.000000
0.000000
0.000000
0.000000
0.000000
0.000000
0.000000
0.000000
0.000000
0.000000
0.000000
0.000000
0.000000
0.000000
0.000000
0.000000
0.000000
0.000000
0.000000
0.000000
0.000000
0.000000
0.000000
0.000000
0.000000
0.000000
0.000000
0.000000
0.000000
0.000000
0.000000
0.000000
0.000000
0.000000
0.000000
0.000000
0.000000
0.000000
0.000000
0.000000
0.000000
0.000000
0.000000
0.000000
0.000000
0.000000
0.000000
0.000000
0.000000
0.000000
0.000000
0.000000
0.000000
0.000000
0.000000
0.000000
0.000000
0.000000
0.000000
0.000000
0.000000
0.000000
0.000000
0.000000
0.000000
0.000000
0.000000
0.000000
0.000000
0.000000
0.000000
0.000000
0.000000
0.000000
0.000000
0.000000
0.000000
0.000000
0.000000
0.000000
0.000000
0.000000
0.000000
0.000000
0.000000
0.000000
0.000000
0.000000
0.000000
0.000000
0.000000
0.000000
0.000000
0.000000
0.000000
0.000000
0.000000
0.000000
0.000000
0.000000
0.000000
0.000000
0.000000
0.000000
0.000000
0.000000
0.000000
0.000000
0.000000
0.000000
0.000000
0.000000
0.000000
0.000000
0.000000
0.000000
0.000000
0.000000
0.000000
0.000000
0.000000
0.000000
0.000000
0.000000
0.000000
0.000000
0.000000
0.000000
0.000000
0.000000
0.000000
0.000000
0.000000
0.000000
0.000000
0.000000
0.000000
0.000000
0.000000
0.000000
0.000000
0.000000
0.000000
0.000000
0.000000
0.000000
0.000000
0.000000
0.000000
0.000000
0.000000
0.000000
0.000000
0.000000
0.000000
0.000000
0.000000
0.000000
0.000000
0.000000
0.000000
0.000000
0.000000
0.000000
0.000000
0.000000
0.000000
0.000000
0.000000
0.000000
0.000000
0.000000
0.000000
0.000000
0.000000
0.000000
0.000000
0.000000
0.000000
0.000000
0.000000
0.000000
0.000000
0.000000
0.000000
0.000000
0.000000
0.000000
0.000000
0.000000
0.000000
0.000000
0.000000
0.000000
0.000000
0.000000
0.000000
0.000000
0.000000
0.000000
0.000000
0.000000
0.000000
0.000000
0.000000
0.000000
0.000000
0.000000
0.000000
0.000000
0.000000
0.000000
0.000000
0.000000
0.000000
0.000000
0.000000
0.000000
0.000000
0.000000
0.000000
0.000000
0.000000
0.000000
0.000000
0.000000
0.000000
0.000000
0.000000
0.000000
0.000000
0.000000
0.000000
0.000000
0.000000
0.000000
0.000000
0.000000
0.000000
0.000000
0.000000
0.000000
0.000000
0.000000
0.000000
0.000000
0.000000
0.000000
0.000000
0.000000
0.000000
0.000000
0.000000
0.000000
0.000000
0.000000
0.000000
0.000000
0.000000
0.000000
0.000000
0.000000
0.000000
0.000000
0.000000
0.000000
0.000000
0.000000
0.000000
0.000000
0.000000
0.000000
0.000000
0.000000
0.000000
0.000000
0.000000
0.000000
0.000000
0.000000
0.000000
0.000000
0.000000
0.000000
0.000000
0.000000
0.000000
0.000000
0.000000
0.000000
0.000000
0.000000
0.000000
0.000000
0.000000
0.000000
0.000000
0.000000
0.000000
0.000000
0.000000
0.000000
0.000000
0.000000
0.000000
0.000000
0.000000
0.000000
0.000000
0.000000
0.000000
0.000000
0.000000
0.000000
0.000000
0.000000
0.000000
0.000000
0.000000
0.000000
0.000000
0.000000
0.000000
0.000000
0.000000
0.000000
0.000000
0.000000
0.000000
0.000000
0.000000
0.000000
0.000000
0.000000
0.000000
0.000000
0.000000
0.000000
0.000000
0.000000
0.000000
0.000000
0.000000
0.000000
0.000000
0.000000
0.000000
0.000000
0.000000
0.000000
0.000000
0.000000
0.000000
0.000000
0.000000
0.000000
0.000000
0.000000
0.000000
0.000000
0.000000
0.000000
0.000000
0.000000
0.000000
0.000000
0.000000
0.000000
0.000000
0.000000
0.000000
0.000000
0.000000
0.000000
0.000000
0.000000
0.000000
0.000000
0.000000
0.000000
0.000000
0.000000
0.000000
0.000000
0.000000
0.000000
0.000000
0.000000
0.000000
0.000000
0.000000
0.000000
0.000000
0.000000
0.000000
0.000000
0.000000
0.000000
0.000000
0.000000
0.000000
0.000000
0.000000
0.000000
0.000000
0.000000
0.000000
0.000000
0.000000
0.000000
0.000000
0.000000
0.000000
0.000000
0.000000
0.000000
0.000000
0.000000
0.000000
0.000000
0.000000
0.000000
0.000000
0.000000
0.000000
0.000000
0.000000
0.000000
0.000000
0.000000
0.000000
0.000000
0.000000
0.000000
0.000000
0.000000
0.000000
0.000000
0.301758
0.301961
0.301961
0.301961
0.301961
0.301961
0.301961
0.301961
0.301961
0.301961
0.301961
0.301961
0.301961
0.301961
0.301961
0.301961
0.301961
0.301961
0.301961
0.301961
0.301961
0.301961
0.301961
0.301961
0.301961
0.301961
0.301961
0.301961
0.301961
0.301961
0.301961
0.301961
0.301961
0.301961
0.301961
0.301961
0.301961
0.301961
0.301961
0.301961
0.301961
0.301961
0.301961
0.301961
0.301961
0.301961
0.301961
0.301961
0.301961
0.301961
0.301961
0.301961
0.301961
0.301961
0.301961
0.301961
0.301961
0.301961
0.301961
0.301961
0.301961
0.301961
0.301961
0.301961
0.301961
0.512741
0.512741
0.512741
0.512741
0.512741
0.512741
0.512741
0.512741
0.512741
0.512741
0.512741
0.512741
0.512741
0.597165
0.762579
0.762579
0.762579
0.762579
0.762579
0.762579
0.762579
0.762579
0.762579
0.762579
0.762579
0.762579
0.762579
0.762579
0.762579
0.762579
0.762579
0.762579
0.762579
0.762579
0.762579
0.762579
0.762579
0.762579
0.762579
0.762579
0.762579
0.762579
0.762579
0.762579
0.762579
0.762579
0.762579
0.762579
0.762579
0.762579
0.762579
0.762579
0.762579
0.762579
0.762579
0.762579
0.762579
0.762579
0.762579
0.762579
0.762579
0.762579
0.762579
0.762579
0.762579
0.762579
0.762579
0.762579
0.762579
0.762579
0.762579
0.762579
0.762579
0.762579
0.762579
0.762579
0.762579
0.762579
0.762579
0.762579
0.762579
0.762579
0.762579
0.762579
0.762579
0.762579
0.762579
0.762579
0.762579
0.762579
0.762579
0.762579
0.762579
0.762579
0.762579
0.762579
0.762579
0.762579
0.762579
0.762579
0.762579
0.762579
0.762579
0.762579
0.762579
0.762579
0.762579
0.762579
0.762579
0.762579
0.762579
0.762579
0.762579
0.762579
0.762579
0.762579
0.762579
0.762579
0.762579
0.762579
0.762579
0.762579
0.762579
0.762579
0.762579
0.762579
0.762579
0.762579
0.762579
0.762579
0.762579
0.762579
0.762579
0.762579
0.762579
0.762579
0.762579
0.762579
0.762579
0.762579
0.762579
0.762579
0.762579
0.762579
0.762579
0.762579
0.762579
0.762579
0.762579
0.762579
0.762579
0.762579
0.762579
0.762579
0.762579
0.762579
0.762579
0.762579
0.762579
0.762579
0.762579
0.762579
0.762579
0.762579
0.762579
0.762579
0.834271
0.834271
0.834271
0.834271
0.834271
0.834271
0.834271
0.834271
0.834271
0.884315
0.884315
0.884315
0.884315
0.884315
0.884315
0.884315
0.884315
0.884315
0.884315
0.884315
0.884315
0.884315
0.884315
0.884315
0.884315
0.884315
0.884315
0.884315
0.884315
0.884315
0.884315
0.884315
0.884315
0.884315
0.884315
0.884315
0.884315
0.884315
0.884315
0.884315
0.884315
0.884315
0.884315
0.884315
0.884315
0.884315
0.884315
0.884315
0.884315
0.884315
0.884315
0.884315
0.884315
0.884315
0.884315
0.884315
0.884315
0.884315
0.884315
0.884315
0.884315
0.884315
0.884315
0.884315
0.884315
0.884315
0.884315
0.884315
0.884315
0.884315
0.884315
0.884315
0.884315
0.884315
0.884315
0.884315
0.884315
0.884315
0.884315
0.884315
0.884315
0.884315
0.884315
0.884315
0.884315
0.884315
0.884315
0.884315
0.884315
0.884315
0.884315
0.884315
0.884315
0.884315
0.884315
0.884315
0.884315
0.884315
0.884315
0.884315
0.884315
0.884315
0.884315
0.884315
0.884315
0.884315
0.884315
0.884315
0.884315
0.884315
0.884315
0.884315
0.884315
0.884315
0.884315
0.884315
0.884315
0.884315
0.884315
0.943745
0.943745
0.943745
0.943745
0.943745
0.943745
0.943745
0.943745
0.943745
0.943745
0.943745
0.943745
0.943745
0.943745
0.943745
0.943745
0.943745
0.943745
0.943745
0.943745
0.943745
0.943745
0.943745
0.943745
0.943745
0.943745
0.943745
0.943745
0.943745
0.943745
0.943745
0.943745
0.943745
0.943745
0.943745
0.943745
0.943745
0.943745
0.943745
0.943745
0.943745
0.943745
0.943745
0.943745
0.943745
0.943745
0.943745
0.943745
0.943745
0.943745
0.943745
0.943745
0.943745
0.943745
0.943745
0.943745
0.943745
0.943745
0.943745
0.943745
0.943745
0.943745
0.943745
0.943745
0.943745
0.943745
0.943745
0.943745
0.943745
0.943745
0.943745
0.943745
0.943745
0.943745
0.943745
0.943745
0.943745
0.943745
0.943745
0.943745
0.943745
0.943745
0.943745
0.943745
0.943745
0.943745
0.943745
0.943745
0.943745
0.943745
0.943745
0.943745
0.943745
0.943745
0.943745
0.943745
0.943745
0.943745
0.943745
0.943745
0.943745
0.943745
0.943745
0.943745
0.943745
0.943745
0.943745
0.943745
0.943745
0.943745
0.943745
0.943745
0.943745
0.943745
0.943745
0.943745
0.943745
0.943745
0.943745
0.943745
0.943745
0.943745
0.943745
0.943745
0.943745
0.943745
0.943745
0.943745
0.943745
0.943745
0.943745
0.943745
0.943745
0.943745
0.943745
0.943745
0.943745
0.943745
0.943745
0.943745
0.943745
0.943745
0.943745
0.943745
0.943745
0.943745
0.943745
0.943745
0.943745
0.943745
0.943745
0.943745
0.943745
0.943745
0.943745
0.943745
0.943745
0.943745
0.943745
0.943745
0.943745
0.943745
0.943745
0.943745
0.943745
0.943745
0.943745
0.943745
0.943745
0.943745
0.943745
0.943745
0.943745
0.943745
0.943745
0.943745
0.943745
0.943745
0.943745
0.943745
0.943745
0.943745
0.943745
0.943745
0.943745
0.943745
0.943745
0.943745
0.943745
0.943745
0.943745
0.943745
0.943745
0.943745
0.943745
0.943745
0.943745
0.943745
0.943745
0.943745
0.943745
0.943745
0.943745
0.943745
0.943745
0.943745
0.943745
0.943745
0.943745
0.943745
0.943745
0.943745
0.943745
0.943745
0.943745
0.943745
0.943745
0.943745
0.943745
0.943745
0.943745
0.943745
0.943745
0.943745
0.943745
0.943745
0.943745
0.943745
0.943745
0.943745
0.943745
0.943745
0.943745
0.943745
0.943745
0.943745
0.943745
0.943745
0.943745
0.943745
0.943745
0.943745
0.943745
0.943745
0.943745
0.943745
0.943745
0.943745
0.943745
0.943745
0.943745
0.943745
0.943745
0.943745
0.943745
0.943745
0.943745
0.943745
0.943745
0.943745
0.943745
0.943745
0.943745
0.943745
0.943745
0.943745
0.943745
0.943745
0.943745
0.943745
0.943745
0.943745
0.943745
0.943745
0.943745
0.943745
0.943745
0.943745
0.943745
0.943745
0.943745
0.943745
0.943745
0.943745
0.943745
0.943745
0.943745
0.943745
0.943745
0.943745
0.943745
0.943745
0.943745
0.943745
0.943745
0.943745
0.943745
0.943745
0.943745
0.943745
0.943745
0.943745
0.943745
0.943745
0.943745
0.943745
0.943745
0.943745
0.943745
0.943745
0.943745
0.943745
0.943745
0.943745
0.943745
0.943745
0.943745
0.943745
0.943745
0.943745
0.943745
0.943745
0.943745
0.943745
0.943745
0.943745
0.943745
0.943745
0.943745
0.943745
0.943745
0.943745
0.943745
0.943745
0.943745
0.943745
0.943745
0.943745
0.943745
0.943745
0.943745
0.943745
0.943745
0.943745
0.943745
0.943745
0.943745
0.943745
0.943745
0.943745
0.943745
0.943745
0.943745
0.943745
0.943745
0.943745
0.943745
0.943745
0.943745
0.943745
0.943745
0.943745
0.943745
0.943745
0.943745
0.943745
0.943745
0.943745
0.943745
0.943745
0.943745
0.943745
0.943745
0.943745
0.943745
0.943745
0.943745
0.943745
0.943745
0.943745
0.943745
0.943745
0.943745
0.943745
0.943745
0.943745
0.943745
0.943745
0.943745
0.943745
0.943745
0.943745
0.943745
0.943745
0.943745
0.943745
0.943745
0.943745
0.943745
0.943745
0.943745
0.943745
0.943745
0.943745
0.943745
0.943745
0.943745
0.943745
0.943745
0.943745
0.943745
0.943745
0.943745
0.943745
0.943745
0.943745
0.943745
0.943745
0.943745
0.943745
0.943745
0.943745
0.943745
0.943745
0.943745
0.943745
0.943745
0.943745
0.943745
0.943745
0.943745
0.943745
0.943745
0.943745
0.943745
0.943745
0.943745
0.943745
0.943745
0.943745
0.943745
0.943745
0.943745
0.943745
0.943745
0.943745
0.943745
0.943745
0.943745
0.943745
0.943745
0.943745
0.943745
0.943745
0.943745
0.943745
0.943745
0.943745
0.943745
0.943745
0.943745
0.943745
0.943745
0.943745
0.943745
0.943745
0.943745
0.943745
0.943745
0.943745
0.943745
0.943745
0.943745
0.943745
0.943745
0.943745
0.943745
0.943745
0.943745
0.943745
0.943745
0.943745
0.943745
0.943745
0.943745
0.943745
0.943745
0.943745
0.943745
0.943745
0.943745
0.943745
0.943745
0.943745
0.943745
0.943745
0.943745
0.943745
0.943745
0.943745
0.943745
0.943745
0.943745
0.943745
0.943745
0.943745
0.943745
0.943745
0.943745
0.943745
0.943745
0.943745
0.943745
0.943745
0.943745
0.943745
0.943745
0.943745
0.943745
0.943745
0.943745
0.943745
0.943745
0.943745
0.943745
0.943745
0.943745
0.943745
0.943745
0.943745
0.943745
0.943745
0.943745
0.943745
0.943745
0.943745
0.943745
0.943745
0.943745
0.943745
0.943745
0.943745
0.943745
0.943745
0.943745
0.943745
0.943745
0.943745
0.943745
0.943745
0.943745
0.943745
0.943745
0.943745
0.943745
0.943745
0.943745
0.943745
0.943745
0.943745
0.943745
0.943745
0.943745
0.943745
0.943745
0.943745
0.943745
0.943745
0.943745
0.943745
0.943745
0.943745
0.943745
0.943745
0.943745
0.943745
0.943745
0.943745
0.943745
0.943745
0.943745
0.943745
0.943745
0.943745
0.943745
0.943745
0.943745
0.943745
0.943745
0.943745
0.943745
0.943745
0.943745
0.943745
0.943745
0.943745
0.943745
0.943745
0.943745
0.943745
0.943745
0.943745
0.943745
0.943745
0.943745
0.943745
0.943745
0.943745
0.943745
0.943745
0.943745
0.943745
0.943745
0.943745
0.943745
0.943745
0.943745
0.943745
0.943745
0.943745
0.943745
0.943745
0.943745
0.943745
0.943745
0.943745
0.943745
0.943745
0.943745
0.943745
0.943745
0.943745
0.943745
0.943745
0.943745
0.943745
0.943745
0.943745
0.943745
0.943745
0.943745
0.943745
0.943745
0.943745
0.943745
0.943745
0.943745
0.943745
0.943745
0.943745
0.943745
0.943745
0.943745
0.943745
0.943745
0.943745
0.943745
0.943745
0.943745
0.943745
0.943745
0.943745
0.943745
0.943745
0.943745
0.943745
0.943745
0.943745
0.943745
0.943745
0.943745
0.943745
0.943745
0.943745
0.943745
0.943745
0.943745
0.943745
0.943745
0.943745
0.943745
0.943745
0.943745
0.943745
0.943745
0.943745
0.943745
0.943745
0.943745
0.943745
0.943745
0.943745
0.943745
0.943745
0.943745
0.943745
0.943745
0.943745
0.943745
0.943745
0.943745
0.943745
0.943745
0.943745
0.943745
0.943745
0.943745
0.943745
0.943745
0.943745
0.943745
0.943745
0.943745
0.943745
0.943745
0.943745
0.943745
0.943745
0.943745
0.943745
0.943745
0.943745
0.943745
0.943745
0.943745
0.943745
0.943745
0.943745
0.943745
0.943745
0.943745
0.943745
0.943745
0.943745
0.943745
0.943745
0.943745
0.943745
0.943745
0.943745
0.943745
0.943745
0.943745
0.943745
0.943745
0.943745
0.943745
0.943745
0.943745
0.943745
0.943745
0.943745
0.943745
0.943745
0.943745
0.943745
0.943745
0.943745
0.943745
0.943745
0.943745
0.943745
0.943745
0.943745
0.943745
0.943745
0.943745
0.943745
0.943745
0.943745
0.943745
0.943745
0.943745
0.943745
0.943745
0.943745
0.943745
0.943745
0.943745
0.943745
0.943745
0.943745
0.943745
0.943745
0.943745
0.943745
0.943745
0.943745
0.943745
0.943745
0.943745
0.943745
0.943745
0.943745
0.943745
0.943745
0.943745
0.943745
0.943745
0.943745
0.943745
0.943745
0.943745
0.943745
0.943745
0.943745
0.943745
0.943745
0.943745
0.943745
0.943745
0.943745
0.943745
0.943745
0.943745
0.943745
0.943745
0.943745
0.943745
0.943745
0.943745
0.943745
0.943745
0.943745
0.943745
0.943745
0.943745
0.943745
0.943745
0.943745
0.943745
0.943745
0.943745
0.943745
0.943745
0.943745
0.943745
0.943745
0.943745
0.943745
0.943745
0.943745
0.943745
0.943745
0.943745
0.943745
0.943745
0.943745
0.943745
0.943745
0.943745
0.943745
0.943745
0.943745
0.943745
0.943745
0.943745
0.943745
0.943745
0.943745
0.943745
0.943745
0.943745
0.943745
0.943745
0.943745
0.943745
0.943745
0.943745
0.943745
0.943745
0.943745
0.943745
0.943745
0.943745
0.943745
0.943745
0.943745
0.943745
0.943745
0.943745
0.943745
0.943745
0.943745
0.943745
0.943745
0.943745
0.943745
0.943745
0.943745
0.943745
0.943745
0.943745
0.943745
0.943745
0.943745
0.943745
0.943745
0.943745
0.943745
0.943745
0.943745
0.943745
0.943745
0.943745
0.943745
0.943745
0.943745
0.943745
0.943745
0.943745
0.943745
0.943745
0.943745
0.943745
0.943745
0.943745
0.943745
0.943745
0.943745
0.943745
0.943745
0.943745
0.943745
0.943745
0.943745
0.943745
0.943745
0.943745
0.943745
0.943745
0.943745
0.943745
0.943745
0.943745
0.943745
0.943745
0.943745
0.943745
0.943745
0.943745
0.943745
0.943745
0.943745
0.943745
0.943745
0.943745
0.943745
0.943745
0.943745
0.943745
0.943745
0.943745
0.943745
0.943745
0.943745
0.943745
0.943745
0.943745
0.943745
0.943745
0.943745
0.943745
0.943745
0.943745
0.943745
0.943745
0.943745
0.943745
0.943745
0.943745
0.943745
0.943745
0.943745
0.943745
0.943745
0.943745
0.943745
0.943745
0.943745
0.943745
0.943745
0.943745
0.943745
0.943745
0.943745
0.943745
0.943745
0.943745
0.943745
0.943745
0.943745
0.943745
0.943745
0.943745
0.943745
0.943745
0.943745
0.943745
0.943745
0.943745
0.943745
0.943745
0.943745
0.943745
0.943745
0.943745
0.943745
0.943745
0.943745
0.943745
0.943745
0.943745
0.943745
0.943745
0.943745
0.943745
0.943745
0.943745
0.943745
0.943745
0.943745
0.943745
0.943745
0.943745
0.943745
0.943745
0.943745
0.943745
0.943745
0.943745
0.943745
0.943745
0.943745
0.943745
0.943745
0.943745
0.943745
0.943745
0.943745
0.943745
0.943745
0.943745
0.943745
0.943745
0.943745
0.943745
0.943745
0.943745
0.943745
0.943745
0.943745
0.943745
0.943745
0.943745
0.943745
0.943745
0.943745
0.943745
0.943745
0.943745
0.943745
0.943745
0.943745
0.943745
0.943745
0.943745
0.943745
0.943745
0.943745
0.943745
0.943745
0.943745
0.943745
0.943745
0.943745
0.943745
0.943745
0.943745
0.943745
0.943745
0.943745
0.943745
0.943745
0.943745
0.943745
0.943745
0.943745
0.943745
0.943745
0.943745
0.943745
0.943745
0.943745
0.943745
0.943745
0.943745
0.943745
0.943745
0.943745
0.943745
0.943745
0.943745
0.943745
0.943745
0.943745
0.943745
0.943745
0.943745
0.943745
0.943745
0.943745
0.943745
0.943745
0.943745
0.943745
0.943745
0.943745
0.943745
0.943745
0.943745
0.943745
0.943745
0.943745
0.943745
0.943745
0.943745
0.972221
0.998897
0.998897
0.998897
0.998897
0.998897
0.998897
0.998897
0.998897
0.998897
0.998897
0.998897
0.998897
0.998897
0.998897
0.998897
0.998897
0.998897
0.998897
0.998897
0.998897
0.998897
0.998897
0.998897
0.998897
0.998897
0.998897
0.998897
0.998897
0.998897
0.998897
0.998897
0.998897
0.998897
0.998897
0.998897
0.998897
0.998897
0.998897
0.998897
0.998897
0.998897
0.998897
0.998897
0.998897
0.998897
0.998897
0.998897
0.998897
0.998897
0.998897
0.998897
0.998897
0.998897
0.998897
0.998897
0.998897
0.998897
0.998897
0.998897
0.998897
0.998897
0.998897
0.998897
0.998897
0.998897
0.998897
0.998897
0.998897
0.998897
0.998897
0.998897
0.998897
0.998897
0.998897
0.998897
0.998897
0.998897
0.998897
0.998897
0.998897
0.998897
0.998897
0.998897
0.998897
0.998897
0.998897
0.998897
0.998897
0.998897
0.998897
0.998897
0.998897
0.998897
0.998897
0.998897
0.998897
0.998897
0.998897
0.998897
0.998897
0.998897
0.998897
0.998897
0.998897
0.998897
0.998897
0.998897
0.998897
0.998897
0.998897
0.998897
0.998897
0.998897
0.998897
0.998897
0.998897
0.998897
0.998897
0.998897
0.998897
0.998897
0.998897
0.998897
0.998897
0.998897
0.998897
0.998897
0.998897
0.998897
0.998897
0.998897
0.998897
0.998897
0.998897
0.998897
0.998897
0.998897
0.998897
0.998897
0.998897
0.998897
0.998897
0.998897
0.998897
0.998897
0.998897
0.998897
0.998897
0.998897
0.998897
0.998897
0.998897
0.998897
0.998897
0.998897
0.998897
0.998897
0.998897
0.998897
0.998897
0.998897
0.998897
0.998897
0.998897
0.998897
0.998897
0.998897
0.998897
0.998897
0.998897
0.998897
0.998897
0.998897
0.998897
0.998897
0.998897
0.998897
0.998897
0.998897
0.998897
0.998897
0.998897
0.998897
0.998897
0.998897
0.998897
0.998897
0.998897
0.998897
0.998897
0.998897
0.998897
0.998897
0.998897
0.998897
0.998897
0.998897
0.998897
0.998897
0.998897
0.998897
0.998897
0.998897
0.998897
0.998897
0.998897
0.998897
0.998897
0.998897
0.998897
0.998897
0.998897
0.998897
0.998897
0.998897
0.998897
0.998897
0.998897
0.998897
0.998897
0.998897
0.998897
0.998897
0.998897
0.998897
0.998897
0.998897
0.998897
0.998897
0.998897
0.998897
0.998897
0.998897
0.998897
0.998897
0.998897
0.998897
0.998897
0.998897
0.998897
0.998897
0.998897
0.998897
0.998897
0.998897
0.998897
0.998897
0.998897
0.998897
0.998897
0.998897
0.998897
0.998897
0.998897
0.998897
0.998897
0.998897
0.998897
0.998897
0.998897
0.998897
0.998897
0.998897
0.998897
0.998897
0.998897
0.998897
0.998897
0.998897
0.998897
0.998897
0.998897
0.998897
0.998897
0.998897
0.998897
0.998897
0.998897
0.998897
0.998897
0.998897
0.998897
0.998897
0.998897
0.998897
0.998897
0.998897
0.998897
0.998897
0.998897
0.998897
0.998897
0.998897
0.998897
0.998897
0.998897
0.998897
0.998897
0.998897
0.998897
0.998897
0.998897
0.998897
0.998897
0.998897
0.998897
0.998897
0.998897
0.998897
0.998897
0.998897
0.998897
0.998897
0.998897
0.998897
0.998897
0.998897
0.998897
0.998897
0.998897
0.998897
0.998897
0.998897
0.998897
0.998897
0.998897
0.998897
0.998897
0.998897
0.998897
0.998897
0.998897
0.998897
0.998897
0.998897
0.998897
0.998897
0.998897
0.998897
0.998897
0.998897
0.998897
0.998897
0.998897
0.998897
0.998897
0.998897
0.998897
0.998897
0.998897
0.998897
0.998897
0.998897
0.998897
0.998897
0.998897
0.998897
0.998897
0.998897
0.998897
0.998897
0.998897
0.998897
0.998897
0.998897
0.998897
0.998897
0.998897
0.998897
0.998897
0.998897
0.998897
0.998897
0.998897
0.998897
0.998897
0.998897
0.998897
0.998897
0.998897
0.998897
0.998897
0.998897
0.998897
0.998897
0.998897
0.998897
0.998897
0.998897
0.998897
0.998897
0.998897
0.998897
0.998897
0.998897
0.998897
0.998897
0.998897
0.998897
0.998897
0.998897
0.998897
0.998897
0.998897
0.998897
0.998897
0.998897
0.998897
0.998897
0.998897
0.998897
0.998897
0.998897
0.998897
0.998897
0.998897
0.998897
0.998897
0.998897
0.998897
0.998897
0.998897
0.998897
0.998897
0.998897
0.998897
0.998897
0.998897
0.998897
0.998897
0.998897
0.998897
0.998897
0.998897
0.998897
0.998897
0.998897
0.998897
0.998897
0.998897
0.998897
0.998897
0.998897
0.998897
0.998897
0.998897
0.998897
0.998897
0.998897
0.998897
0.998897
0.998897
0.998897
0.998897
0.998897
0.998897
0.998897
0.998897
0.998897
0.998897
0.998897
0.998897
0.998897
0.998897
0.998897
0.998897
0.998897
0.998897
0.998897
0.998897
0.998897
0.998897
0.998897
0.998897
0.998897
0.998897
0.998897
0.998897
0.998897
0.998897
0.998897
0.998897
0.998897
0.998897
0.998897
0.998897
0.998897
0.998897
0.998897
0.998897
0.998897
0.998897
0.998897
0.998897
0.998897
0.998897
0.998897
0.998897
0.998897
0.998897
0.998897
0.998897
0.998897
0.998897
0.998897
0.998897
0.998897
0.998897
0.998897
0.998897
0.998897
0.998897
0.998897
0.998897
0.998897
0.998897
0.998897
0.998897
0.998897
0.998897
0.998897
0.998897
0.998897
0.998897
0.998897
0.998897
0.998897
0.998897
0.998897
0.998897
0.998897
0.998897
0.998897
0.998897
0.998897
0.998897
0.998897
0.998897
0.998897
0.998897
0.998897
0.998897
0.998897
0.998897
0.998897
0.998897
0.998897
0.998897
0.998897
0.998897
0.998897
0.998897
0.998897
0.998897
0.998897
0.998897
0.998897
0.998897
0.998897
0.998897
0.998897
0.998897
0.998897
0.998897
0.998897
0.998897
0.998897
0.998897
0.998897
0.998897
0.998897
0.998897
0.998897
0.998897
0.998897
0.998897
0.998897
0.998897
0.998897
0.998897
0.998897
0.998897
0.998897
0.998897
0.998897
0.998897
0.998897
0.998897
0.998897
0.998897
0.998897
0.998897
0.998897
0.998897
0.998897
0.998897
0.998897
0.998897
0.998897
0.998897
0.998897
0.998897
0.998897
0.998897
0.998897
0.998897
0.998897
0.998897
0.998897
0.998897
0.998897
0.998897
0.998897
0.998897
0.998897
0.998897
0.998897
0.998897
0.998897
0.998897
0.998897
0.998897
0.998897
0.998897
0.998897
0.998897
0.998897
0.998897
0.998897
0.998897
0.998897
0.998897
0.998897
0.998897
0.998897
0.998897
0.998897
0.998897
0.998897
0.998897
0.998897
0.998897
0.998897
0.998897
0.998897
0.998897
0.998897
0.998897
0.998897
0.998897
0.998897
0.998897
0.998897
0.998897
0.998897
0.998897
0.998897
0.998897
0.998897
0.998897
0.998897
0.998897
0.998897
0.998897
0.998897
0.998897
0.998897
0.998897
0.998897
0.998897
0.998897
0.998897
0.998897
0.998897
0.998897
0.998897
0.998897
0.998897
0.998897
0.998897
0.998897
0.998897
0.998897
0.998897
0.998897
0.998897
0.998897
0.998897
0.998897
0.998897
0.998897
0.998897
0.998897
0.998897
0.998897
0.998897
0.998897
0.998897
0.998897
0.998897
0.998897
0.998897
0.998897
0.998897
0.998897
0.998897
0.998897
0.998897
0.998897
0.998897
0.998897
0.998897
0.998897
0.998897
0.998897
0.998897
0.998897
0.998897
0.998897
0.998897
0.998897
0.998897
0.998897
0.998897
0.998897
0.998897
0.998897
0.998897
0.998897
0.998897
0.998897
0.998897
0.998897
0.998897
0.998897
0.998897
0.998897
0.998897
0.998897
0.998897
0.998897
0.998897
0.998897
0.998897
0.998897
0.998897
0.998897
0.998897
0.998897
0.998897
0.998897
0.998897
0.998897
0.998897
0.998897
0.998897
0.998897
0.998897
0.998897
0.998897
0.998897
0.998897
0.998897
0.998897
0.998897
0.998897
0.998897
0.998897
0.998897
0.998897
0.998897
0.998897
0.998897
0.998897
0.998897
0.998897
0.998897
0.998897
0.998897
0.998897
0.998897
0.998897
0.998897
0.998897
0.998897
0.998897
0.998897
0.998897
0.998897
0.998897
0.998897
0.998897
0.998897
0.998897
0.998897
0.998897
0.998897
0.998897
0.998897
0.998897
0.998897
0.998897
0.998897
0.998897
0.998897
0.998897
0.998897
0.998897
0.998897
0.998897
0.998897
0.998897
0.998897
0.998897
0.998897
0.998897
0.998897
0.998897
0.998897
0.998897
0.998897
0.998897
0.998897
0.998897
0.998897
0.998897
0.998897
0.998897
0.998897
0.998897
0.998897
0.998897
0.998897
0.998897
0.998897
0.998897
0.998897
0.998897
0.998897
0.998897
0.998897
0.998897
0.998897
0.998897
0.998897
0.998897
0.998897
0.998897
0.998897
0.998897
0.998897
0.998897
0.998897
0.998897
0.998897
0.998897
0.998897
0.998897
0.998897
0.998897
0.998897
0.998897
0.998897
0.998897
0.998897
0.998897
0.998897
0.998897
0.998897
0.998897
0.998897
0.998897
0.998897
0.998897
0.998897
0.998897
0.998897
0.998897
0.998897
0.998897
0.998897
0.998897
0.998897
0.998897
0.998897
0.998897
0.998897
0.998897
0.998897
0.998897
0.998897
0.998897
0.998897
0.998897
0.998897
0.998897
0.998897
0.998897
0.998897
0.998897
0.998897
0.998897
0.998897
0.998897
0.998897
0.998897
0.998897
0.998897
0.998897
0.998897
0.998897
0.998897
0.998897
0.998897
0.998897
0.998897
0.998897
0.998897
0.998897
0.998897
0.998897
0.998897
0.998897
0.998897
0.998897
0.998897
0.998897
0.998897
0.998897
0.998897
0.998897
0.998897
0.998897
0.998897
0.998897
0.998897
0.998897
0.998897
0.998897
0.998897
0.998897
0.998897
0.998897
0.998897
0.998897
0.998897
0.998897
0.998897
0.998897
0.998897
0.998897
0.998897
0.998897
0.998897
0.998897
0.998897
0.998897
0.998897
0.998897
0.998897
0.998897
0.998897
0.998897
0.998897
0.998897
0.998897
0.998897
0.998897
0.998897
0.998897
0.998897
0.998897
0.998897
0.998897
0.998897
0.998897
0.998897
0.998897
0.998897
0.998897
0.998897
0.998897
0.998897
0.998897
0.998897
0.998897
0.998897
0.998897
0.998897
0.998897
0.998897
0.998897
0.998897
0.998897
0.998897
0.998897
0.998897
0.998897
0.998897
0.998897
0.998897
