4.167225
4.169225
4.171225
4.173225
4.175225
4.177225
4.179225
4.181225
4.183225
4.185225
4.187225
4.189225
4.191225
4.193225
4.195225
4.197225
4.199225
4.201225
4.203225
4.205225
4.207225
4.209225
4.211225
4.213225
4.215225
4.217225
4.219225
4.221225
4.223225
4.225225
4.227225
4.229225
4.231225
4.233225
4.235225
4.237225
4.239225
4.241225
4.243225
4.245225
4.247225
4.249225
4.251225
4.253225
4.255225
4.257225
4.259225
4.261225
4.263225
4.265225
4.267225
4.269225
4.271225
4.273225
4.275225
4.277225
4.279225
4.281225
4.283225
4.285225
4.287225
4.289225
4.291225
4.293225
4.295225
4.297225
4.299225
4.301225
4.303225
4.305225
4.307225
4.309225
4.311225
4.313225
4.315225
4.317225
4.319225
4.321225
4.323225
4.325225
4.327225
4.329225
4.331225
4.333225
4.335225
4.337225
4.339225
4.341225
4.343225
4.345225
4.347225
4.349225
4.351225
4.353225
4.355225
4.357225
4.359225
4.361225
4.363225
4.365225
4.367225
4.369225
4.371225
4.373225
4.375225
4.377225
4.379225
4.381225
4.383225
4.385225
4.387225
4.389225
4.391225
4.393225
4.395225
4.397225
4.399225
4.401225
4.403225
4.405225
4.407225
4.409225
4.411225
4.413225
4.415225
4.417225
4.419225
4.421225
4.423225
4.425225
4.427225
4.429225
4.431225
4.433225
4.435225
4.437225
4.439225
4.441225
4.443225
4.445225
4.447225
4.449225
4.451225
4.453225
4.455225
4.457225
4.459225
4.461225
4.463225
4.465225
4.467225
4.469225
4.471225
4.473225
4.475225
4.477225
4.479225
4.481225
4.483225
4.485225
4.487225
4.489225
4.491225
4.493225
4.495225
4.497225
4.499225
4.501225
4.503225
4.505225
4.507225
4.509225
4.511225
4.513225
4.515225
4.517225
4.519225
4.521225
4.523225
4.525225
4.527225
4.529225
4.531225
4.533225
4.535225
4.537225
4.539225
4.541225
4.543225
4.545225
4.547225
4.549225
4.551225
4.553225
4.555225
4.557225
4.559225
4.561225
4.563225
4.565225
4.567225
4.569225
4.571225
4.573225
4.575225
4.577225
4.579225
4.581225
4.583225
4.585225
4.587225
4.589225
4.591225
4.593225
4.595225
4.597225
4.599225
4.601225
4.603225
4.605225
4.607225
4.609225
4.611225
4.613225
4.615225
4.617225
4.619225
4.621225
4.623225
4.625225
4.627225
4.629225
4.631225
4.633225
4.635225
4.637225
4.639225
4.641225
4.643225
4.645225
4.647225
4.649225
4.651225
4.653225
4.655225
4.657225
4.659225
4.661225
4.663225
4.665225
4.667225
4.669225
4.671225
4.673225
4.675225
4.677225
4.679225
4.681225
4.683225
4.685225
4.687225
4.689225
4.691225
4.693225
4.695225
4.697225
4.699225
4.701225
4.703225
4.705225
4.707225
4.709225
4.711225
4.713225
4.715225
4.717225
4.719225
4.721225
4.723225
4.725225
4.727225
4.729225
4.731225
4.733225
4.735225
4.737225
4.739225
4.741225
4.743225
4.745225
4.747225
4.749225
4.751225
4.753225
4.755225
4.757225
4.759225
4.761225
4.763225
4.765225
4.767225
4.769225
4.771225
4.773225
4.775225
4.777225
4.779225
4.781225
4.783225
4.785225
4.787225
4.789225
4.791225
4.793225
4.795225
4.797225
4.799225
4.801225
4.803225
4.805225
4.807225
4.809225
4.811225
4.813225
4.815225
4.817225
4.819225
4.821225
4.823225
4.825225
4.827225
4.829225
4.831225
4.833225
4.835225
4.837225
4.839225
4.841225
4.843225
4.845225
4.847225
4.849225
4.851225
4.853225
4.855225
4.857225
4.859225
4.861225
4.863225
4.865225
4.867225
4.869225
4.871225
4.873225
4.875225
4.877225
4.879225
4.881225
4.883225
4.885225
4.887225
4.889225
4.891225
4.893225
4.895225
4.897225
4.899225
4.901225
4.903225
4.905225
4.907225
4.909225
4.911225
4.913225
4.915225
4.917225
4.919225
4.921225
4.923225
4.925225
4.927225
4.929225
4.931225
4.933225
4.935225
4.937225
4.939225
4.941225
4.943225
4.945225
4.947225
4.949225
4.951225
4.953225
4.955225
4.957225
4.959225
4.961225
4.963225
4.965225
4.967225
4.969225
4.971225
4.973225
4.975225
4.977225
4.979225
4.981225
4.983225
4.985225
4.987225
4.989225
4.991225
4.993225
4.995225
4.997225
4.999225
5.001225
5.003225
5.005225
5.007225
5.009225
5.011225
5.013225
5.015225
5.017225
5.019225
5.021225
5.023225
5.025225
5.027225
5.029225
5.031225
5.033225
5.035225
5.037225
5.039225
5.041225
5.043225
5.045225
5.047225
5.049225
5.051225
5.053225
5.055225
5.057225
5.059225
5.061225
5.063225
5.065225
5.067225
5.069225
5.071225
5.073225
5.075225
5.077225
5.079225
5.081225
5.083225
5.085225
5.087225
5.089225
5.091225
5.093225
5.095225
5.097225
5.099225
5.101225
5.103225
5.105225
5.107225
5.109225
5.111225
5.113225
5.115225
5.117225
5.119225
5.121225
5.123225
5.125225
5.127225
5.129225
5.131225
5.133225
5.135225
5.137225
5.139225
5.141225
5.143225
5.145225
5.147225
5.149225
5.151225
5.153225
5.155225
5.157225
5.159225
5.161225
5.163225
5.165225
5.167225
5.169225
5.171225
5.173225
5.175225
5.177225
5.179225
5.181225
5.183225
5.185225
5.187225
5.189225
5.191225
5.193225
5.195225
5.197225
5.199225
5.201225
5.203225
5.205225
5.207225
5.209225
5.211225
5.213225
5.215225
5.217225
5.219225
5.221225
5.223225
5.225225
5.227225
5.229225
5.231225
5.233225
5.235225
5.237225
5.239225
5.241225
5.243225
5.245225
5.247225
5.249225
5.251225
5.253225
5.255225
5.257225
5.259225
5.261225
5.263225
5.265225
5.267225
5.269225
5.271225
5.273225
5.275225
5.277225
5.279225
5.281225
5.283225
5.285225
5.287225
5.289225
5.291225
5.293225
5.295225
5.297225
5.299225
5.301225
5.303225
5.305225
5.307225
5.309225
5.311225
5.313225
5.315225
5.317225
5.319225
5.321225
5.323225
5.325225
5.327225
5.329225
5.331225
5.333225
5.335225
5.337225
5.339225
5.341225
5.343225
5.345225
5.347225
5.349225
5.351225
5.353225
5.355225
5.357225
5.359225
5.361225
5.363225
5.365225
5.367225
5.369225
5.371225
5.373225
5.375225
5.377225
5.379225
5.381225
5.383225
5.385225
5.387225
5.389225
5.391225
5.393225
5.395225
5.397225
5.399225
5.401225
5.403225
5.405225
5.407225
5.409225
5.411225
5.413225
5.415225
5.417225
5.419225
5.421225
5.423225
5.425225
5.427225
5.429225
5.431225
5.433225
5.435225
5.437225
5.439225
5.441225
5.443225
5.445225
5.447225
5.449225
5.451225
5.453225
5.455225
5.457225
5.459225
5.461225
5.463225
5.465225
5.467225
5.469225
5.471225
5.473225
5.475225
5.477225
5.479225
5.481225
5.483225
5.485225
5.487225
5.489225
5.491225
5.493225
5.495225
5.497225
5.499225
5.501225
5.503225
5.505225
5.507225
5.509225
5.511225
5.513225
5.515225
5.517225
5.519225
5.521225
5.523225
5.525225
5.527225
5.529225
5.531225
5.533225
5.535225
5.537225
5.539225
5.541225
5.543225
5.545225
5.547225
5.549225
5.551225
5.553225
5.555225
5.557225
5.559225
5.561225
5.563225
5.565225
5.567225
5.569225
5.571225
5.573225
5.575225
5.577225
5.579225
5.581225
5.583225
5.585225
5.587225
5.589225
5.591225
5.593225
5.595225
5.597225
5.599225
5.601225
5.603225
5.605225
5.607225
5.609225
5.611225
5.613225
5.615225
5.617225
5.619225
5.621225
5.623225
5.625225
5.627225
5.629225
5.631225
5.633225
5.635225
5.637225
5.639225
5.641225
5.643225
5.645225
5.647225
5.649225
5.651225
5.653225
5.655225
5.657225
5.659225
5.661225
5.663225
5.665225
5.667225
5.669225
5.671225
5.673225
5.675225
5.677225
5.679225
5.681225
5.683225
5.685225
5.687225
5.689225
5.691225
5.693225
5.695225
5.697225
5.699225
5.701225
5.703225
5.705225
5.707225
5.709225
5.711225
5.713225
5.715225
5.717225
5.719225
5.721225
5.723225
5.725225
5.727225
5.729225
5.731225
5.733225
5.735225
5.737225
5.739225
5.741225
5.743225
5.745225
5.747225
5.749225
5.751225
5.753225
5.755225
5.757225
5.759225
5.761225
5.763225
5.765225
5.767225
5.769225
5.771225
5.773225
5.775225
5.777225
5.779225
5.781225
5.783225
5.785225
5.787225
5.789225
5.791225
5.793225
5.795225
5.797225
5.799225
5.801225
5.803225
5.805225
5.807225
5.809225
5.811225
5.813225
5.815225
5.817225
5.819225
5.821225
5.823225
5.825225
5.827225
5.829225
5.831225
5.833225
5.835225
5.837225
5.839225
5.841225
5.843225
5.845225
5.847225
5.849225
5.851225
5.853225
5.855225
5.857225
5.859225
5.861225
5.863225
5.865225
5.867225
5.869225
5.871225
5.873225
5.875225
5.877225
5.879225
5.881225
5.883225
5.885225
5.887225
5.889225
5.891225
5.893225
5.895225
5.897225
5.899225
5.901225
5.903225
5.905225
5.907225
5.909225
5.911225
5.913225
5.915225
5.917225
5.919225
5.921225
5.923225
5.925225
5.927225
5.929225
5.931225
5.933225
5.935225
5.937225
5.939225
5.941225
5.943225
5.945225
5.947225
5.949225
5.951225
5.953225
5.955225
5.957225
5.959225
5.961225
5.963225
5.965225
5.967225
5.969225
5.971225
5.973225
5.975225
5.977225
5.979225
5.981225
5.983225
5.985225
5.987225
5.989225
5.991225
5.993225
5.995225
5.997225
5.999225
6.001225
6.003225
6.005225
6.007225
6.009225
6.011225
6.013225
6.015225
6.017225
6.019225
6.021225
6.023225
6.025225
6.027225
6.029225
6.031225
6.033225
6.035225
6.037225
6.039225
6.041225
6.043225
6.045225
6.047225
6.049225
6.051225
6.053225
6.055225
6.057225
6.059225
6.061225
6.063225
6.065225
6.067225
6.069225
6.071225
6.073225
6.075225
6.077225
6.079225
6.081225
6.083225
6.085225
6.087225
6.089225
6.091225
6.093225
6.095225
6.097225
6.099225
6.101225
6.103225
6.105225
6.107225
6.109225
6.111225
6.113225
6.115225
6.117225
6.119225
6.121225
6.123225
6.125225
6.127225
6.129225
6.131225
6.133225
6.135225
6.137225
6.139225
6.141225
6.143225
6.145225
6.147225
6.149225
6.151225
6.153225
6.155225
6.157225
6.159225
6.161225
6.163225
6.165225
6.167225
6.169225
6.171225
6.173225
6.175225
6.177225
6.179225
6.181225
6.183225
6.185225
6.187225
6.189225
6.191225
6.193225
6.195225
6.197225
6.199225
6.201225
6.203225
6.205225
6.207225
6.209225
6.211225
6.213225
6.215225
6.217225
6.219225
6.221225
6.223225
6.225225
6.227225
6.229225
6.231225
6.233225
6.235225
6.237225
6.239225
6.241225
6.243225
6.245225
6.247225
6.249225
6.251225
6.253225
6.255225
6.257225
6.259225
6.261225
6.263225
6.265225
6.267225
6.269225
6.271225
6.273225
6.275225
6.277225
6.279225
6.281225
6.283225
6.285225
6.287225
6.289225
6.291225
6.293225
6.295225
6.297225
6.299225
6.301225
6.303225
6.305225
6.307225
6.309225
6.311225
6.313225
6.315225
6.317225
6.319225
6.321225
6.323225
6.325225
6.327225
6.329225
6.331225
6.333225
6.335225
6.337225
6.339225
6.341225
6.343225
6.345225
6.347225
6.349225
6.351225
6.353225
6.355225
6.357225
6.359225
6.361225
6.363225
6.365225
6.367225
6.369225
6.371225
6.373225
6.375225
6.377225
6.379225
6.381225
6.383225
6.385225
6.387225
6.389225
6.391225
6.393225
6.395225
6.397225
6.399225
6.401225
6.403225
6.405225
6.407225
6.409225
6.411225
6.413225
6.415225
6.417225
6.419225
6.421225
6.423225
6.425225
6.427225
6.429225
6.431225
6.433225
6.435225
6.437225
6.439225
6.441225
6.443225
6.445225
6.447225
6.449225
6.451225
6.453225
6.455225
6.457225
6.459225
6.461225
6.463225
6.465225
6.467225
6.469225
6.471225
6.473225
6.475225
6.477225
6.479225
6.481225
6.483225
6.485225
6.487225
6.489225
6.491225
6.493225
6.495225
6.497225
6.499225
6.501225
6.503225
6.505225
6.507225
6.509225
6.511225
6.513225
6.515225
6.517225
6.519225
6.521225
6.523225
6.525225
6.527225
6.529225
6.531225
6.533225
6.535225
6.537225
6.539225
6.541225
6.543225
6.545225
6.547225
6.549225
6.551225
6.553225
6.555225
6.557225
6.559225
6.561225
6.563225
6.565225
6.567225
6.569225
6.571225
6.573225
6.575225
6.577225
6.579225
6.581225
6.583225
6.585225
6.587225
6.589225
6.591225
6.593225
6.595225
6.597225
6.599225
6.601225
6.603225
6.605225
6.607225
6.609225
6.611225
6.613225
6.615225
6.617225
6.619225
6.621225
6.623225
6.625225
6.627225
6.629225
6.631225
6.633225
6.635225
6.637225
6.639225
6.641225
6.643225
6.645225
6.647225
6.649225
6.651225
6.653225
6.655225
6.657225
6.659225
6.661225
6.663225
6.665225
6.667225
6.669225
6.671225
6.673225
6.675225
6.677225
6.679225
6.681225
6.683225
6.685225
6.687225
6.689225
6.691225
6.693225
6.695225
6.697225
6.699225
6.701225
6.703225
6.705225
6.707225
6.709225
6.711225
6.713225
6.715225
6.717225
6.719225
6.721225
6.723225
6.725225
6.727225
6.729225
6.731225
6.733225
6.735225
6.737225
6.739225
6.741225
6.743225
6.745225
6.747225
6.749225
6.751225
6.753225
6.755225
6.757225
6.759225
6.761225
6.763225
6.765225
6.767225
6.769225
6.771225
6.773225
6.775225
6.777225
6.779225
6.781225
6.783225
6.785225
6.787225
6.789225
6.791225
6.793225
6.795225
6.797225
6.799225
6.801225
6.803225
6.805225
6.807225
6.809225
6.811225
6.813225
6.815225
6.817225
6.819225
6.821225
6.823225
6.825225
6.827225
6.829225
6.831225
6.833225
6.835225
6.837225
6.839225
6.841225
6.843225
6.845225
6.847225
6.849225
6.851225
6.853225
6.855225
6.857225
6.859225
6.861225
6.863225
6.865225
6.867225
6.869225
6.871225
6.873225
6.875225
6.877225
6.879225
6.881225
6.883225
6.885225
6.887225
6.889225
6.891225
6.893225
6.895225
6.897225
6.899225
6.901225
6.903225
6.905225
6.907225
6.909225
6.911225
6.913225
6.915225
6.917225
6.919225
6.921225
6.923225
6.925225
6.927225
6.929225
6.931225
6.933225
6.935225
6.937225
6.939225
6.941225
6.943225
6.945225
6.947225
6.949225
6.951225
6.953225
6.955225
6.957225
6.959225
6.961225
6.963225
6.965225
6.967225
6.969225
6.971225
6.973225
6.975225
6.977225
6.979225
6.981225
6.983225
6.985225
6.987225
6.989225
6.991225
6.993225
6.995225
6.997225
6.999225
7.001225
7.003225
7.005225
7.007225
7.009225
7.011225
7.013225
7.015225
7.017225
7.019225
7.021225
7.023225
7.025225
7.027225
7.029225
7.031225
7.033225
7.035225
7.037225
7.039225
7.041225
7.043225
7.045225
7.047225
7.049225
7.051225
7.053225
7.055225
7.057225
7.059225
7.061225
7.063225
7.065225
7.067225
7.069225
7.071225
7.073225
7.075225
7.077225
7.079225
7.081225
7.083225
7.085225
7.087225
7.089225
7.091225
7.093225
7.095225
7.097225
7.099225
7.101225
7.103225
7.105225
7.107225
7.109225
7.111225
7.113225
7.115225
7.117225
7.119225
7.121225
7.123225
7.125225
7.127225
7.129225
7.131225
7.133225
7.135225
7.137225
7.139225
7.141225
7.143225
7.145225
7.147225
7.149225
7.151225
7.153225
7.155225
7.157225
7.159225
7.161225
7.163225
7.165225
7.167225
7.169225
7.171225
7.173225
7.175225
7.177225
7.179225
7.181225
7.183225
7.185225
7.187225
7.189225
7.191225
7.193225
7.195225
7.197225
7.199225
7.201225
7.203225
7.205225
7.207225
7.209225
7.211225
7.213225
7.215225
7.217225
7.219225
7.221225
7.223225
7.225225
7.227225
7.229225
7.231225
7.233225
7.235225
7.237225
7.239225
7.241225
7.243225
7.245225
7.247225
7.249225
7.251225
7.253225
7.255225
7.257225
7.259225
7.261225
7.263225
7.265225
7.267225
7.269225
7.271225
7.273225
7.275225
7.277225
7.279225
7.281225
7.283225
7.285225
7.287225
7.289225
7.291225
7.293225
7.295225
7.297225
7.299225
7.301225
7.303225
7.305225
7.307225
7.309225
7.311225
7.313225
7.315225
7.317225
7.319225
7.321225
7.323225
7.325225
7.327225
7.329225
7.331225
7.333225
7.335225
7.337225
7.339225
7.341225
7.343225
7.345225
7.347225
7.349225
7.351225
7.353225
7.355225
7.357225
7.359225
7.361225
7.363225
7.365225
7.367225
7.369225
7.371225
7.373225
7.375225
7.377225
7.379225
7.381225
7.383225
7.385225
7.387225
7.389225
7.391225
7.393225
7.395225
7.397225
7.399225
7.401225
7.403225
7.405225
7.407225
7.409225
7.411225
7.413225
7.415225
7.417225
7.419225
7.421225
7.423225
7.425225
7.427225
7.429225
7.431225
7.433225
7.435225
7.437225
7.439225
7.441225
7.443225
7.445225
7.447225
7.449225
7.451225
7.453225
7.455225
7.457225
7.459225
7.461225
7.463225
7.465225
7.467225
7.469225
7.471225
7.473225
7.475225
7.477225
7.479225
7.481225
7.483225
7.485225
7.487225
7.489225
7.491225
7.493225
7.495225
7.497225
7.499225
7.501225
7.503225
7.505225
7.507225
7.509225
7.511225
7.513225
7.515225
7.517225
7.519225
7.521225
7.523225
7.525225
7.527225
7.529225
7.531225
7.533225
7.535225
7.537225
7.539225
7.541225
7.543225
7.545225
7.547225
7.549225
7.551225
7.553225
7.555225
7.557225
7.559225
7.561225
7.563225
7.565225
7.567225
7.569225
7.571225
7.573225
7.575225
7.577225
7.579225
7.581225
7.583225
7.585225
7.587225
7.589225
7.591225
7.593225
7.595225
7.597225
7.599225
7.601225
7.603225
7.605225
7.607225
7.609225
7.611225
7.613225
7.615225
7.617225
7.619225
7.621225
7.623225
7.625225
7.627225
7.629225
7.631225
7.633225
7.635225
7.637225
7.639225
7.641225
7.643225
7.645225
7.647225
7.649225
7.651225
7.653225
7.655225
7.657225
7.659225
7.661225
7.663225
7.665225
7.667225
7.669225
7.671225
7.673225
7.675225
7.677225
7.679225
7.681225
7.683225
7.685225
7.687225
7.689225
7.691225
7.693225
7.695225
7.697225
7.699225
7.701225
7.703225
7.705225
7.707225
7.709225
7.711225
7.713225
7.715225
7.717225
7.719225
7.721225
7.723225
7.725225
7.727225
7.729225
7.731225
7.733225
7.735225
7.737225
7.739225
7.741225
7.743225
7.745225
7.747225
7.749225
7.751225
7.753225
7.755225
7.757225
7.759225
7.761225
7.763225
7.765225
7.767225
7.769225
7.771225
7.773225
7.775225
7.777225
7.779225
7.781225
7.783225
7.785225
7.787225
7.789225
7.791225
7.793225
7.795225
7.797225
7.799225
7.801225
7.803225
7.805225
7.807225
7.809225
7.811225
7.813225
7.815225
7.817225
7.819225
7.821225
7.823225
7.825225
7.827225
7.829225
7.831225
7.833225
7.835225
7.837225
7.839225
7.841225
7.843225
7.845225
7.847225
7.849225
7.851225
7.853225
7.855225
7.857225
7.859225
7.861225
7.863225
7.865225
7.867225
7.869225
7.871225
7.873225
7.875225
7.877225
7.879225
7.881225
7.883225
7.885225
7.887225
7.889225
7.891225
7.893225
7.895225
7.897225
7.899225
7.901225
7.903225
7.905225
7.907225
7.909225
7.911225
7.913225
7.915225
7.917225
7.919225
7.921225
7.923225
7.925225
7.927225
7.929225
7.931225
7.933225
7.935225
7.937225
7.939225
7.941225
7.943225
7.945225
7.947225
7.949225
7.951225
7.953225
7.955225
7.957225
7.959225
7.961225
7.963225
7.965225
7.967225
7.969225
7.971225
7.973225
7.975225
7.977225
7.979225
7.981225
7.983225
7.985225
7.987225
7.989225
7.991225
7.993225
7.995225
7.997225
7.999225
8.001225
8.003225
8.005225
8.007225
8.009225
8.011225
8.013225
8.015224
8.017225
8.019225
8.021225
8.023225
8.025225
8.027225
8.029225
8.031225
8.033225
8.035225
8.037225
8.039225
8.041224
8.043225
8.045225
8.047225
8.049225
8.051225
8.053225
8.055224
8.057225
8.059225
8.061225
8.063225
8.065225
8.067225
8.069225
8.071225
8.073225
8.075225
8.077225
8.079225
8.081224
8.083225
8.085225
8.087225
8.089225
8.091225
8.093225
8.095225
8.097225
8.099225
8.101225
8.103225
8.105225
8.107224
8.109225
8.111225
8.113225
8.115225
8.117225
8.119225
8.121225
8.123225
8.125225
8.127225
8.129225
8.131225
8.133224
8.135225
8.137225
8.139225
8.141225
8.143225
8.145225
8.147224
8.149225
8.151225
8.153225
8.155225
8.157225
8.159225
8.161225
8.163225
8.165225
8.167225
8.169225
8.171225
8.173224
8.175225
8.177225
8.179225
8.181225
8.183225
8.185225
8.187225
8.189225
8.191225
8.193225
8.195225
8.197225
8.199224
8.201225
8.203225
8.205225
8.207225
8.209225
8.211225
8.213224
8.215225
8.217225
8.219225
8.221225
8.223225
8.225224
8.227225
8.229225
8.231225
8.233225
8.235225
8.237225
8.239224
8.241225
8.243225
8.245225
8.247225
8.249225
8.251225
8.253225
8.255225
8.257225
8.259225
8.261225
8.263225
8.265224
8.267225
8.269225
8.271225
8.273225
8.275225
8.277225
8.279225
8.281225
8.283225
8.285225
8.287225
8.289225
8.291224
8.293225
8.295225
8.297225
8.299225
8.301225
8.303225
8.305224
8.307225
8.309225
8.311225
8.313225
8.315225
8.317225
8.319225
8.321225
8.323225
8.325225
8.327225
8.329225
8.331224
8.333225
8.335225
8.337225
8.339225
8.341225
8.343225
8.345225
8.347225
8.349225
8.351225
8.353225
8.355225
8.357224
8.359225
8.361225
8.363225
8.365225
8.367225
8.369225
8.371225
8.373225
8.375225
8.377225
8.379225
8.381225
8.383224
8.385225
8.387225
8.389225
8.391225
8.393225
8.395225
8.397224
8.399225
8.401225
8.403225
8.405225
8.407225
8.409225
8.411225
8.413225
8.415225
8.417225
8.419225
8.421225
8.423224
8.425225
8.427225
8.429225
8.431225
8.433225
8.435225
8.437225
8.439225
8.441225
8.443225
8.445225
8.447225
8.449224
8.451225
8.453225
8.455225
8.457225
8.459225
8.461225
8.463224
8.465225
8.467225
8.469225
8.471225
8.473225
8.475224
8.477225
8.479225
8.481225
8.483225
8.485225
8.487225
8.489224
8.491225
8.493225
8.495225
8.497225
8.499225
8.501225
8.503225
8.505225
8.507225
8.509225
8.511225
8.513225
8.515224
8.517225
8.519225
8.521225
8.523225
8.525225
8.527225
8.529225
8.531225
8.533225
8.535225
8.537225
8.539225
8.541224
8.543225
8.545225
8.547225
8.549225
8.551225
8.553225
8.555224
8.557225
8.559225
8.561225
8.563225
8.565225
8.567225
8.569225
8.571225
8.573225
8.575225
8.577225
8.579225
8.581224
8.583225
8.585225
8.587225
8.589225
8.591225
8.593225
8.595225
8.597225
8.599225
8.601225
8.603225
8.605225
8.607224
8.609225
8.611225
8.613225
8.615225
8.617225
8.619225
8.621225
8.623225
8.625225
8.627225
8.629225
8.631225
8.633224
8.635225
8.637225
8.639225
8.641225
8.643225
8.645225
8.647224
8.649225
8.651225
8.653225
8.655225
8.657225
8.659225
8.661225
8.663225
8.665225
8.667225
8.669225
8.671225
8.673224
8.675225
8.677225
8.679225
8.681225
8.683225
8.685225
8.687225
8.689225
8.691225
8.693225
8.695225
8.697225
8.699224
8.701225
8.703225
8.705225
8.707225
8.709225
8.711225
8.713224
8.715225
8.717225
8.719225
8.721225
8.723225
8.725224
8.727225
8.729225
8.731225
8.733225
8.735225
8.737225
8.739224
8.741225
8.743225
8.745225
8.747225
8.749225
8.751225
8.753225
8.755225
8.757225
8.759225
8.761225
8.763225
8.765224
8.767225
8.769225
8.771225
8.773225
8.775225
8.777225
8.779225
8.781225
8.783225
8.785225
8.787225
8.789225
8.791224
8.793225
8.795225
8.797225
8.799225
8.801225
8.803225
8.805224
8.807225
8.809225
8.811225
8.813225
8.815225
8.817225
8.819225
8.821225
8.823225
8.825225
8.827225
8.829225
8.831224
8.833225
8.835225
8.837225
8.839225
8.841225
8.843225
8.845225
8.847225
8.849225
8.851225
8.853225
8.855225
8.857224
8.859225
8.861225
8.863225
8.865225
8.867225
8.869225
8.871225
8.873225
8.875225
8.877225
8.879225
8.881225
8.883224
8.885225
8.887225
8.889225
8.891225
8.893225
8.895225
8.897224
8.899225
8.901225
8.903225
8.905225
8.907225
8.909225
8.911225
8.913225
8.915225
8.917225
8.919225
8.921225
8.923224
8.925225
8.927225
8.929225
8.931225
8.933225
8.935225
8.937225
8.939225
8.941225
8.943225
8.945225
8.947225
8.949224
8.951225
8.953225
8.955225
8.957225
8.959225
8.961225
8.963224
8.965225
8.967225
8.969225
8.971225
8.973225
8.975224
8.977225
8.979225
8.981225
8.983225
8.985225
8.987225
8.989224
8.991225
8.993225
8.995225
8.997225
8.999225
9.001225
9.003225
9.005225
9.007225
9.009225
9.011225
9.013225
9.015224
9.017225
9.019225
9.021225
9.023225
9.025225
9.027225
9.029225
9.031225
9.033225
9.035225
9.037225
9.039225
9.041224
9.043225
9.045225
9.047225
9.049225
9.051225
9.053225
9.055224
9.057225
9.059225
9.061225
9.063225
9.065225
9.067225
9.069225
9.071225
9.073225
9.075225
9.077225
9.079225
9.081224
9.083225
9.085225
9.087225
9.089225
9.091225
9.093225
9.095225
9.097225
9.099225
9.101225
9.103225
9.105225
9.107224
9.109225
9.111225
9.113225
9.115225
9.117225
9.119225
9.121225
9.123225
9.125225
9.127225
9.129225
9.131225
9.133224
9.135225
9.137225
9.139225
9.141225
9.143225
9.145225
9.147224
9.149225
9.151225
9.153225
9.155225
9.157225
9.159225
9.161225
9.163225
9.165225
9.167225
9.169225
9.171225
9.173224
9.175225
9.177225
9.179225
9.181225
9.183225
9.185225
9.187225
9.189225
9.191225
9.193225
9.195225
9.197225
9.199224
9.201225
9.203225
9.205225
9.207225
9.209225
9.211225
9.213224
9.215225
9.217225
9.219225
9.221225
9.223225
9.225224
9.227225
9.229225
9.231225
9.233225
9.235225
9.237225
9.239224
9.241225
9.243225
9.245225
9.247225
9.249225
9.251225
9.253225
9.255225
9.257225
9.259225
9.261225
9.263225
9.265224
9.267225
9.269225
9.271225
9.273225
9.275225
9.277225
9.279225
9.281225
9.283225
9.285225
9.287225
9.289225
9.291224
9.293225
9.295225
9.297225
9.299225
9.301225
9.303225
9.305224
9.307225
9.309225
9.311225
9.313225
9.315225
9.317225
9.319225
9.321225
9.323225
9.325225
9.327225
9.329225
9.331224
9.333225
9.335225
9.337225
9.339225
9.341225
9.343225
9.345225
9.347225
9.349225
9.351225
9.353225
9.355225
9.357224
9.359225
9.361225
9.363225
9.365225
9.367225
9.369225
9.371225
9.373225
9.375225
9.377225
9.379225
9.381225
9.383224
9.385225
9.387225
9.389225
9.391225
9.393225
9.395225
9.397224
9.399225
9.401225
9.403225
9.405225
9.407225
9.409225
9.411225
9.413225
9.415225
9.417225
9.419225
9.421225
9.423224
9.425225
9.427225
9.429225
9.431225
9.433225
9.435225
9.437225
9.439225
9.441225
9.443225
9.445225
9.447225
9.449224
9.451225
9.453225
9.455225
9.457225
9.459225
9.461225
9.463224
9.465225
9.467225
9.469225
9.471225
9.473225
9.475224
9.477225
9.479225
9.481225
9.483225
9.485225
9.487225
9.489224
9.491225
9.493225
9.495225
9.497225
9.499225
9.501225
9.503225
9.505225
9.507225
9.509225
9.511225
9.513225
9.515224
9.517225
9.519225
9.521225
9.523225
9.525225
9.527225
9.529225
9.531225
9.533225
9.535225
9.537225
9.539225
9.541224
9.543225
9.545225
9.547225
9.549225
9.551225
9.553225
9.555224
9.557225
9.559225
9.561225
9.563225
9.565225
9.567225
9.569225
9.571225
9.573225
9.575225
9.577225
9.579225
9.581224
9.583225
9.585225
9.587225
9.589225
9.591225
9.593225
9.595225
9.597225
9.599225
9.601225
9.603225
9.605225
9.607224
9.609225
9.611225
9.613225
9.615225
9.617225
9.619225
9.621225
9.623225
9.625225
9.627225
9.629225
9.631225
9.633224
9.635225
9.637225
9.639225
9.641225
9.643225
9.645225
9.647224
9.649225
9.651225
9.653225
9.655225
9.657225
9.659225
9.661225
9.663225
9.665225
9.667225
9.669225
9.671225
9.673224
9.675225
9.677225
9.679225
9.681225
9.683225
9.685225
9.687225
9.689225
9.691225
9.693225
9.695225
9.697225
9.699224
9.701225
9.703225
9.705225
9.707225
9.709225
9.711225
9.713224
9.715225
9.717225
9.719225
9.721225
9.723225
9.725224
9.727225
9.729225
9.731225
9.733225
9.735225
9.737225
9.739224
9.741225
9.743225
9.745225
9.747225
9.749225
9.751225
9.753225
9.755225
9.757225
9.759225
9.761225
9.763225
9.765224
9.767225
9.769225
9.771225
9.773225
9.775225
9.777225
9.779225
9.781225
9.783225
9.785225
9.787225
9.789225
9.791224
9.793225
9.795225
9.797225
9.799225
9.801225
9.803225
9.805224
9.807225
9.809225
9.811225
9.813225
9.815225
9.817225
9.819225
9.821225
9.823225
9.825225
9.827225
9.829225
9.831224
9.833225
9.835225
9.837225
9.839225
9.841225
9.843225
9.845225
9.847225
9.849225
9.851225
9.853225
9.855225
9.857224
9.859225
9.861225
9.863225
9.865225
9.867225
9.869225
9.871225
9.873225
9.875225
9.877225
9.879225
9.881225
9.883224
9.885225
9.887225
9.889225
9.891225
9.893225
9.895225
9.897224
9.899225
9.901225
9.903225
9.905225
9.907225
9.909225
9.911225
9.913225
9.915225
9.917225
9.919225
9.921225
9.923224
9.925225
9.927225
9.929225
9.931225
9.933225
9.935225
9.937225
9.939225
9.941225
9.943225
9.945225
9.947225
9.949224
9.951225
9.953225
9.955225
9.957225
9.959225
9.961225
9.963224
9.965225
9.967225
9.969225
9.971225
9.973225
9.975224
9.977225
9.979225
9.981225
9.983225
9.985225
9.987225
9.989224
9.991225
9.993225
9.995225
9.997225
9.999225
10.001225
10.003225
10.005225
10.007225
10.009225
10.011225
10.013225
10.015224
10.017225
10.019225
10.021225
10.023225
10.025225
10.027225
10.029225
10.031225
10.033225
10.035225
10.037225
10.039225
10.041224
10.043225
10.045225
10.047225
10.049225
10.051225
10.053225
10.055224
10.057225
10.059225
10.061225
10.063225
10.065225
10.067225
10.069225
10.071225
10.073225
10.075225
10.077225
10.079225
10.081224
10.083225
10.085225
10.087225
10.089225
10.091225
10.093225
10.095225
10.097225
10.099225
10.101225
10.103225
10.105225
10.107224
10.109225
10.111225
10.113225
10.115225
10.117225
10.119225
10.121225
10.123225
10.125225
10.127225
10.129225
10.131225
10.133224
10.135225
10.137225
10.139225
10.141225
10.143225
10.145225
10.147224
10.149225
10.151225
10.153225
10.155225
10.157225
10.159225
10.161225
10.163225
10.165225
10.167225
10.169225
10.171225
10.173224
10.175225
10.177225
10.179225
10.181225
10.183225
10.185225
10.187225
10.189225
10.191225
10.193225
10.195225
10.197225
10.199224
10.201225
10.203225
10.205225
10.207225
10.209225
10.211225
10.213224
10.215225
10.217225
10.219225
10.221225
10.223225
10.225224
10.227225
10.229225
10.231225
10.233225
10.235225
10.237225
10.239224
10.241225
10.243225
10.245225
10.247225
10.249225
10.251225
10.253225
10.255225
10.257225
10.259225
10.261225
10.263225
10.265224
10.267225
10.269225
10.271225
10.273225
10.275225
10.277225
10.279225
10.281225
10.283225
10.285225
10.287225
10.289225
10.291224
10.293225
10.295225
10.297225
10.299225
10.301225
10.303225
10.305224
10.307225
10.309225
10.311225
10.313225
10.315225
10.317225
10.319225
10.321225
10.323225
10.325225
10.327225
10.329225
10.331224
10.333225
10.335225
10.337225
10.339225
10.341225
10.343225
10.345225
10.347225
10.349225
10.351225
10.353225
10.355225
10.357224
10.359225
10.361225
10.363225
10.365225
10.367225
10.369225
10.371225
10.373225
10.375225
10.377225
10.379225
10.381225
10.383224
10.385225
10.387225
10.389225
10.391225
10.393225
10.395225
10.397224
10.399225
10.401225
10.403225
10.405225
10.407225
10.409225
10.411225
10.413225
10.415225
10.417225
10.419225
10.421225
10.423224
10.425225
10.427225
10.429225
10.431225
10.433225
10.435225
10.437225
10.439225
10.441225
10.443225
10.445225
10.447225
10.449224
10.451225
10.453225
10.455225
10.457225
10.459225
10.461225
10.463224
10.465225
10.467225
10.469225
10.471225
10.473225
10.475224
10.477225
10.479225
10.481225
10.483225
10.485225
10.487225
10.489224
10.491225
10.493225
10.495225
10.497225
10.499225
10.501225
10.503225
10.505225
10.507225
10.509225
10.511225
10.513225
10.515224
10.517225
10.519225
10.521225
10.523225
10.525225
10.527225
10.529225
10.531225
10.533225
10.535225
10.537225
10.539225
10.541224
10.543225
10.545225
10.547225
10.549225
10.551225
10.553225
10.555224
10.557225
10.559225
10.561225
10.563225
10.565225
10.567225
10.569225
10.571225
10.573225
10.575225
10.577225
10.579225
10.581224
10.583225
10.585225
10.587225
10.589225
10.591225
10.593225
10.595225
10.597225
10.599225
10.601225
10.603225
10.605225
10.607224
10.609225
10.611225
10.613225
10.615225
10.617225
10.619225
10.621225
10.623225
10.625225
10.627225
10.629225
10.631225
10.633224
10.635225
10.637225
10.639225
10.641225
10.643225
10.645225
10.647224
10.649225
10.651225
10.653225
10.655225
10.657225
10.659225
10.661225
10.663225
10.665225
10.667225
10.669225
10.671225
10.673224
10.675225
10.677225
10.679225
10.681225
10.683225
10.685225
10.687225
10.689225
10.691225
10.693225
10.695225
10.697225
10.699224
10.701225
10.703225
10.705225
10.707225
10.709225
10.711225
10.713224
10.715225
10.717225
10.719225
10.721225
10.723225
10.725224
10.727225
10.729225
10.731225
10.733225
10.735225
10.737225
10.739224
10.741225
10.743225
10.745225
10.747225
10.749225
10.751225
10.753225
10.755225
10.757225
10.759225
10.761225
10.763225
10.765224
10.767225
10.769225
10.771225
10.773225
10.775225
10.777225
10.779225
10.781225
10.783225
10.785225
10.787225
10.789225
10.791224
10.793225
10.795225
10.797225
10.799225
10.801225
10.803225
10.805224
10.807225
10.809225
10.811225
10.813225
10.815225
10.817225
10.819225
10.821225
10.823225
10.825225
10.827225
10.829225
10.831224
10.833225
10.835225
10.837225
10.839225
10.841225
10.843225
10.845225
10.847225
10.849225
10.851225
10.853225
10.855225
10.857224
10.859225
10.861225
10.863225
10.865225
10.867225
10.869225
10.871225
10.873225
10.875225
10.877225
10.879225
10.881225
10.883224
10.885225
10.887225
10.889225
10.891225
10.893225
10.895225
10.897224
10.899225
10.901225
10.903225
10.905225
10.907225
10.909225
10.911225
10.913225
10.915225
10.917225
10.919225
10.921225
10.923224
10.925225
10.927225
10.929225
10.931225
10.933225
10.935225
10.937225
10.939225
10.941225
10.943225
10.945225
10.947225
10.949224
10.951225
10.953225
10.955225
10.957225
10.959225
10.961225
10.963224
10.965225
10.967225
10.969225
10.971225
10.973225
10.975224
10.977225
10.979225
10.981225
10.983225
10.985225
10.987225
10.989224
10.991225
10.993225
10.995225
10.997225
10.999225
11.001225
11.003225
11.005225
11.007225
11.009225
11.011225
11.013225
11.015224
11.017225
11.019225
11.021225
11.023225
11.025225
11.027225
11.029225
11.031225
11.033225
11.035225
11.037225
11.039225
11.041224
11.043225
11.045225
11.047225
11.049225
11.051225
11.053225
11.055224
11.057225
11.059225
11.061225
11.063225
11.065225
11.067225
11.069225
11.071225
11.073225
11.075225
11.077225
11.079225
11.081224
11.083225
11.085225
11.087225
11.089225
11.091225
11.093225
11.095225
11.097225
11.099225
11.101225
11.103225
11.105225
11.107224
11.109225
11.111225
11.113225
11.115225
11.117225
11.119225
11.121225
11.123225
11.125225
11.127225
11.129225
11.131225
11.133224
11.135225
11.137225
11.139225
11.141225
11.143225
11.145225
11.147224
11.149225
11.151225
11.153225
11.155225
11.157225
11.159225
11.161225
11.163225
11.165225
11.167225
11.169225
11.171225
11.173224
11.175225
11.177225
11.179225
11.181225
11.183225
11.185225
11.187225
11.189225
11.191225
11.193225
11.195225
11.197225
11.199224
11.201225
11.203225
11.205225
11.207225
11.209225
11.211225
11.213224
11.215225
11.217225
11.219225
11.221225
11.223225
11.225224
11.227225
11.229225
11.231225
11.233225
11.235225
11.237225
11.239224
11.241225
11.243225
11.245225
11.247225
11.249225
11.251225
11.253225
11.255225
11.257225
11.259225
11.261225
11.263225
11.265224
11.267225
11.269225
11.271225
11.273225
11.275225
11.277225
11.279225
11.281225
11.283225
11.285225
11.287225
11.289225
11.291224
11.293225
11.295225
11.297225
11.299225
11.301225
11.303225
11.305224
11.307225
11.309225
11.311225
11.313225
11.315225
11.317225
11.319225
11.321225
11.323225
11.325225
11.327225
11.329225
11.331224
11.333225
11.335225
11.337225
11.339225
11.341225
11.343225
11.345225
11.347225
11.349225
11.351225
11.353225
11.355225
11.357224
11.359225
11.361225
11.363225
11.365225
11.367225
11.369225
11.371225
11.373225
11.375225
11.377225
11.379225
11.381225
11.383224
11.385225
11.387225
11.389225
11.391225
11.393225
11.395225
11.397224
11.399225
11.401225
11.403225
11.405225
11.407225
11.409225
11.411225
11.413225
11.415225
11.417225
11.419225
11.421225
11.423224
11.425225
11.427225
11.429225
11.431225
11.433225
11.435225
11.437225
11.439225
11.441225
11.443225
11.445225
11.447225
11.449224
11.451225
11.453225
11.455225
11.457225
11.459225
11.461225
11.463224
11.465225
11.467225
11.469225
11.471225
11.473225
11.475224
11.477225
11.479225
11.481225
11.483225
11.485225
11.487225
11.489224
11.491225
11.493225
11.495225
11.497225
11.499225
11.501225
11.503225
11.505225
11.507225
11.509225
11.511225
11.513225
11.515224
11.517225
11.519225
11.521225
11.523225
11.525225
11.527225
11.529225
11.531225
11.533225
11.535225
11.537225
11.539225
11.541224
11.543225
11.545225
11.547225
11.549225
11.551225
11.553225
11.555224
11.557225
11.559225
11.561225
11.563225
11.565225
11.567225
11.569225
11.571225
11.573225
11.575225
11.577225
11.579225
11.581224
11.583225
11.585225
11.587225
11.589225
11.591225
11.593225
11.595225
11.597225
11.599225
11.601225
11.603225
11.605225
11.607224
11.609225
11.611225
11.613225
11.615225
11.617225
11.619225
11.621225
11.623225
11.625225
11.627225
11.629225
11.631225
11.633224
11.635225
11.637225
11.639225
11.641225
11.643225
11.645225
11.647224
11.649225
11.651225
11.653225
11.655225
11.657225
11.659225
11.661225
11.663225
11.665225
11.667225
11.669225
11.671225
11.673224
11.675225
11.677225
11.679225
11.681225
11.683225
11.685225
11.687225
11.689225
11.691225
11.693225
11.695225
11.697225
11.699224
11.701225
11.703225
11.705225
11.707225
11.709225
11.711225
11.713224
11.715225
11.717225
11.719225
11.721225
11.723225
11.725224
11.727225
11.729225
11.731225
11.733225
11.735225
11.737225
11.739224
11.741225
11.743225
11.745225
11.747225
11.749225
11.751225
11.753225
11.755225
11.757225
11.759225
11.761225
11.763225
11.765224
11.767225
11.769225
11.771225
11.773225
11.775225
11.777225
11.779225
11.781225
11.783225
11.785225
11.787225
11.789225
11.791224
11.793225
11.795225
11.797225
11.799225
11.801225
11.803225
11.805224
11.807225
11.809225
11.811225
11.813225
11.815225
11.817225
11.819225
11.821225
11.823225
11.825225
11.827225
11.829225
11.831224
11.833225
11.835225
11.837225
11.839225
11.841225
11.843225
11.845225
11.847225
11.849225
11.851225
11.853225
11.855225
11.857224
11.859225
11.861225
11.863225
11.865225
11.867225
11.869225
11.871225
11.873225
11.875225
11.877225
11.879225
11.881225
11.883224
11.885225
11.887225
11.889225
11.891225
11.893225
11.895225
11.897224
11.899225
11.901225
11.903225
11.905225
11.907225
11.909225
11.911225
11.913225
11.915225
11.917225
11.919225
11.921225
11.923224
11.925225
11.927225
11.929225
11.931225
11.933225
11.935225
11.937225
11.939225
11.941225
11.943225
11.945225
11.947225
11.949224
11.951225
11.953225
11.955225
11.957225
11.959225
11.961225
11.963224
11.965225
11.967225
11.969225
11.971225
11.973225
11.975224
11.977225
11.979225
11.981225
11.983225
11.985225
11.987225
11.989224
11.991225
11.993225
11.995225
11.997225
11.999225
12.001225
12.003225
12.005225
12.007225
12.009225
12.011225
12.013225
12.015224
12.017225
12.019225
12.021225
12.023225
12.025225
12.027225
12.029225
12.031225
12.033225
12.035225
12.037225
12.039225
12.041224
12.043225
12.045225
12.047225
12.049225
12.051225
12.053225
12.055224
12.057225
12.059225
12.061225
12.063225
12.065225
12.067225
12.069225
12.071225
12.073225
12.075225
12.077225
12.079225
12.081224
12.083225
12.085225
12.087225
12.089225
12.091225
12.093225
12.095225
12.097225
12.099225
12.101225
12.103225
12.105225
12.107224
12.109225
12.111225
12.113225
12.115225
12.117225
12.119225
12.121225
12.123225
12.125225
12.127225
12.129225
12.131225
12.133224
12.135225
12.137225
12.139225
12.141225
12.143225
12.145225
12.147224
12.149225
12.151225
12.153225
12.155225
12.157225
12.159225
12.161225
12.163225
12.165225
12.167225
12.169225
12.171225
12.173224
12.175225
12.177225
12.179225
12.181225
12.183225
12.185225
12.187225
12.189225
12.191225
12.193225
12.195225
12.197225
12.199224
12.201225
12.203225
12.205225
12.207225
12.209225
12.211225
12.213224
12.215225
12.217225
12.219225
12.221225
12.223225
12.225224
12.227225
12.229225
12.231225
12.233225
12.235225
12.237225
12.239224
12.241225
12.243225
12.245225
12.247225
12.249225
12.251225
12.253225
12.255225
12.257225
12.259225
12.261225
12.263225
12.265224
12.267225
12.269225
12.271225
12.273225
12.275225
12.277225
12.279225
12.281225
12.283225
12.285225
12.287225
12.289225
12.291224
12.293225
12.295225
12.297225
12.299225
12.301225
12.303225
12.305224
12.307225
12.309225
12.311225
12.313225
12.315225
12.317225
12.319225
12.321225
12.323225
12.325225
12.327225
12.329225
12.331224
12.333225
12.335225
12.337225
12.339225
12.341225
12.343225
12.345225
12.347225
12.349225
12.351225
12.353225
12.355225
12.357224
12.359225
12.361225
12.363225
12.365225
12.367225
12.369225
12.371225
12.373225
12.375225
12.377225
12.379225
12.381225
12.383224
12.385225
12.387225
12.389225
12.391225
12.393225
12.395225
12.397224
12.399225
12.401225
12.403225
12.405225
12.407225
12.409225
12.411225
12.413225
12.415225
12.417225
12.419225
12.421225
12.423224
12.425225
12.427225
12.429225
12.431225
12.433225
12.435225
12.437225
12.439225
12.441225
12.443225
12.445225
12.447225
12.449224
12.451225
12.453225
12.455225
12.457225
12.459225
12.461225
12.463224
12.465225
12.467225
12.469225
12.471225
12.473225
12.475224
12.477225
12.479225
12.481225
12.483225
12.485225
12.487225
12.489224
12.491225
12.493225
12.495225
12.497225
12.499225
12.501225
12.503225
12.505225
12.507225
12.509225
12.511225
12.513225
12.515224
12.517225
12.519225
12.521225
12.523225
12.525225
12.527225
12.529225
12.531225
12.533225
12.535225
12.537225
12.539225
12.541224
12.543225
12.545225
12.547225
12.549225
12.551225
12.553225
12.555224
12.557225
12.559225
12.561225
12.563225
12.565225
12.567225
12.569225
12.571225
12.573225
12.575225
12.577225
12.579225
12.581224
12.583225
12.585225
12.587225
12.589225
12.591225
12.593225
12.595225
12.597225
12.599225
12.601225
12.603225
12.605225
12.607224
12.609225
12.611225
12.613225
12.615225
12.617225
12.619225
12.621225
12.623225
12.625225
12.627225
12.629225
12.631225
12.633224
12.635225
12.637225
12.639225
12.641225
12.643225
12.645225
12.647224
12.649225
12.651225
12.653225
12.655225
12.657225
12.659225
12.661225
12.663225
12.665225
12.667225
12.669225
12.671225
12.673224
12.675225
12.677225
12.679225
12.681225
12.683225
12.685225
12.687225
12.689225
12.691225
12.693225
12.695225
12.697225
12.699224
12.701225
12.703225
12.705225
12.707225
12.709225
12.711225
12.713224
12.715225
12.717225
12.719225
12.721225
12.723225
12.725224
12.727225
12.729225
12.731225
12.733225
12.735225
12.737225
12.739224
12.741225
12.743225
12.745225
12.747225
12.749225
12.751225
12.753225
12.755225
12.757225
12.759225
12.761225
12.763225
12.765224
12.767225
12.769225
12.771225
12.773225
12.775225
12.777225
12.779225
12.781225
12.783225
12.785225
12.787225
12.789225
12.791224
12.793225
12.795225
12.797225
12.799225
12.801225
12.803225
12.805224
12.807225
12.809225
12.811225
12.813225
12.815225
12.817225
12.819225
12.821225
12.823225
12.825225
12.827225
12.829225
12.831224
12.833225
12.835225
12.837225
12.839225
12.841225
12.843225
12.845225
12.847225
12.849225
12.851225
12.853225
12.855225
12.857224
12.859225
12.861225
12.863225
12.865225
12.867225
12.869225
12.871225
12.873225
12.875225
12.877225
12.879225
12.881225
12.883224
12.885225
12.887225
12.889225
12.891225
12.893225
12.895225
12.897224
12.899225
12.901225
12.903225
12.905225
12.907225
12.909225
12.911225
12.913225
12.915225
12.917225
12.919225
12.921225
12.923224
12.925225
12.927225
12.929225
12.931225
12.933225
12.935225
12.937225
12.939225
12.941225
12.943225
12.945225
12.947225
12.949224
12.951225
12.953225
12.955225
12.957225
12.959225
12.961225
12.963224
12.965225
12.967225
12.969225
12.971225
12.973225
12.975224
12.977225
12.979225
12.981225
12.983225
12.985225
12.987225
12.989224
12.991225
12.993225
12.995225
12.997225
12.999225
13.001225
13.003225
13.005225
13.007225
13.009225
13.011225
13.013225
13.015224
13.017225
13.019225
13.021225
13.023225
13.025225
13.027225
13.029225
13.031225
13.033225
13.035225
13.037225
13.039225
13.041224
13.043225
13.045225
13.047225
13.049225
13.051225
13.053225
13.055224
13.057225
13.059225
13.061225
13.063225
13.065225
13.067225
13.069225
13.071225
13.073225
13.075225
13.077225
13.079225
13.081224
13.083225
13.085225
13.087225
13.089225
13.091225
13.093225
13.095225
13.097225
13.099225
13.101225
13.103225
13.105225
13.107224
13.109225
13.111225
13.113225
13.115225
13.117225
13.119225
13.121225
13.123225
13.125225
13.127225
13.129225
13.131225
13.133224
13.135225
13.137225
13.139225
13.141225
13.143225
13.145225
13.147224
13.149225
13.151225
13.153225
13.155225
13.157225
13.159225
13.161225
13.163225
13.165225
13.167225
13.169225
13.171225
13.173224
13.175225
13.177225
13.179225
13.181225
13.183225
13.185225
13.187225
13.189225
13.191225
13.193225
13.195225
13.197225
13.199224
13.201225
13.203225
13.205225
13.207225
13.209225
13.211225
13.213224
13.215225
13.217225
13.219225
13.221225
13.223225
13.225224
13.227225
13.229225
13.231225
13.233225
13.235225
13.237225
13.239224
13.241225
13.243225
13.245225
13.247225
13.249225
13.251225
13.253225
13.255225
13.257225
13.259225
13.261225
13.263225
13.265224
13.267225
13.269225
13.271225
13.273225
13.275225
13.277225
13.279225
13.281225
13.283225
13.285225
13.287225
13.289225
13.291224
13.293225
13.295225
13.297225
13.299225
13.301225
13.303225
13.305224
13.307225
13.309225
13.311225
13.313225
13.315225
13.317225
13.319225
13.321225
13.323225
13.325225
13.327225
13.329225
13.331224
13.333225
13.335225
13.337225
13.339225
13.341225
13.343225
13.345225
13.347225
13.349225
13.351225
13.353225
13.355225
13.357224
13.359225
13.361225
13.363225
13.365225
13.367225
13.369225
13.371225
13.373225
13.375225
13.377225
13.379225
13.381225
13.383224
13.385225
13.387225
13.389225
13.391225
13.393225
13.395225
13.397224
13.399225
13.401225
13.403225
13.405225
13.407225
13.409225
13.411225
13.413225
13.415225
13.417225
13.419225
13.421225
13.423224
13.425225
13.427225
13.429225
13.431225
13.433225
13.435225
13.437225
13.439225
13.441225
13.443225
13.445225
13.447225
13.449224
13.451225
13.453225
13.455225
13.457225
13.459225
13.461225
13.463224
13.465225
13.467225
13.469225
13.471225
13.473225
13.475224
13.477225
13.479225
13.481225
13.483225
13.485225
13.487225
13.489224
13.491225
13.493225
13.495225
13.497225
13.499225
13.501225
13.503225
13.505225
13.507225
13.509225
13.511225
13.513225
13.515224
13.517225
13.519225
13.521225
13.523225
13.525225
13.527225
13.529225
13.531225
13.533225
13.535225
13.537225
13.539225
13.541224
13.543225
13.545225
13.547225
13.549225
13.551225
13.553225
13.555224
13.557225
13.559225
13.561225
13.563225
13.565225
13.567225
13.569225
13.571225
13.573225
13.575225
13.577225
13.579225
13.581224
13.583225
13.585225
13.587225
13.589225
13.591225
13.593225
13.595225
13.597225
13.599225
13.601225
13.603225
13.605225
13.607224
13.609225
13.611225
13.613225
13.615225
13.617225
13.619225
13.621225
13.623225
13.625225
13.627225
13.629225
13.631225
13.633224
13.635225
13.637225
13.639225
13.641225
13.643225
13.645225
13.647224
13.649225
13.651225
13.653225
13.655225
13.657225
13.659225
13.661225
13.663225
13.665225
13.667225
13.669225
13.671225
13.673224
13.675225
13.677225
13.679225
13.681225
13.683225
13.685225
13.687225
13.689225
13.691225
13.693225
13.695225
13.697225
13.699224
13.701225
13.703225
13.705225
13.707225
13.709225
13.711225
13.713224
13.715225
13.717225
13.719225
13.721225
13.723225
13.725224
13.727225
13.729225
13.731225
13.733225
13.735225
13.737225
13.739224
13.741225
13.743225
13.745225
13.747225
13.749225
13.751225
13.753225
13.755225
13.757225
13.759225
13.761225
13.763225
13.765224
13.767225
13.769225
13.771225
13.773225
13.775225
13.777225
13.779225
13.781225
13.783225
13.785225
13.787225
13.789225
13.791224
13.793225
13.795225
13.797225
13.799225
13.801225
13.803225
13.805224
13.807225
13.809225
13.811225
13.813225
13.815225
13.817225
13.819225
13.821225
13.823225
13.825225
13.827225
13.829225
13.831224
13.833225
13.835225
13.837225
13.839225
13.841225
13.843225
13.845225
13.847225
13.849225
13.851225
13.853225
13.855225
13.857224
13.859225
13.861225
13.863225
13.865225
13.867225
13.869225
13.871225
13.873225
13.875225
13.877225
13.879225
13.881225
13.883224
13.885225
13.887225
13.889225
13.891225
13.893225
13.895225
13.897224
13.899225
13.901225
13.903225
13.905225
13.907225
13.909225
13.911225
13.913225
13.915225
13.917225
13.919225
13.921225
13.923224
13.925225
13.927225
13.929225
13.931225
13.933225
13.935225
13.937225
13.939225
13.941225
13.943225
13.945225
13.947225
13.949224
13.951225
13.953225
13.955225
13.957225
13.959225
13.961225
13.963224
13.965225
13.967225
13.969225
13.971225
13.973225
13.975224
13.977225
13.979225
13.981225
13.983225
13.985225
13.987225
13.989224
13.991225
13.993225
13.995225
13.997225
13.999225
14.001225
14.003225
14.005225
14.007225
14.009225
14.011225
14.013225
14.015224
14.017225
14.019225
14.021225
14.023225
14.025225
14.027225
14.029225
14.031225
14.033225
14.035225
14.037225
14.039225
14.041224
14.043225
14.045225
14.047225
14.049225
14.051225
14.053225
14.055224
14.057225
14.059225
14.061225
14.063225
14.065225
14.067225
14.069225
14.071225
14.073225
14.075225
14.077225
14.079225
14.081224
14.083225
14.085225
14.087225
14.089225
14.091225
14.093225
14.095225
14.097225
14.099225
14.101225
14.103225
14.105225
14.107224
14.109225
14.111225
14.113225
14.115225
14.117225
14.119225
14.121225
14.123225
14.125225
14.127225
14.129225
14.131225
14.133224
14.135225
14.137225
14.139225
14.141225
14.143225
14.145225
14.147224
14.149225
14.151225
14.153225
14.155225
14.157225
14.159225
14.161225
14.163225
14.165225
14.167225
14.169225
14.171225
14.173224
14.175225
14.177225
14.179225
14.181225
14.183225
14.185225
14.187225
14.189225
14.191225
14.193225
14.195225
14.197225
14.199224
14.201225
14.203225
14.205225
14.207225
14.209225
14.211225
14.213224
14.215225
14.217225
14.219225
14.221225
14.223225
14.225224
14.227225
14.229225
14.231225
14.233225
14.235225
14.237225
14.239224
14.241225
14.243225
14.245225
14.247225
14.249225
14.251225
14.253225
14.255225
14.257225
14.259225
14.261225
14.263225
14.265224
14.267225
14.269225
14.271225
14.273225
14.275225
14.277225
14.279225
14.281225
14.283225
14.285225
14.287225
14.289225
14.291224
14.293225
14.295225
14.297225
14.299225
14.301225
14.303225
14.305224
14.307225
14.309225
14.311225
14.313225
14.315225
14.317225
14.319225
14.321225
14.323225
14.325225
14.327225
14.329225
14.331224
14.333225
14.335225
14.337225
14.339225
14.341225
14.343225
14.345225
14.347225
14.349225
14.351225
14.353225
14.355225
14.357224
14.359225
14.361225
14.363225
14.365225
14.367225
14.369225
14.371225
14.373225
14.375225
14.377225
14.379225
14.381225
14.383224
14.385225
14.387225
14.389225
14.391225
14.393225
14.395225
14.397224
14.399225
14.401225
14.403225
14.405225
14.407225
14.409225
14.411225
14.413225
14.415225
14.417225
14.419225
14.421225
14.423224
14.425225
14.427225
14.429225
14.431225
14.433225
14.435225
14.437225
14.439225
14.441225
14.443225
14.445225
14.447225
14.449224
14.451225
14.453225
14.455225
14.457225
14.459225
14.461225
14.463224
14.465225
14.467225
14.469225
14.471225
14.473225
14.475224
14.477225
14.479225
14.481225
14.483225
14.485225
14.487225
14.489224
14.491225
14.493225
14.495225
14.497225
14.499225
14.501225
14.503225
14.505225
14.507225
14.509225
14.511225
14.513225
14.515224
14.517225
14.519225
14.521225
14.523225
14.525225
14.527225
14.529225
14.531225
14.533225
14.535225
14.537225
14.539225
14.541224
14.543225
14.545225
14.547225
14.549225
14.551225
14.553225
14.555224
14.557225
14.559225
14.561225
14.563225
14.565225
14.567225
14.569225
14.571225
14.573225
14.575225
14.577225
14.579225
14.581224
14.583225
14.585225
14.587225
14.589225
14.591225
14.593225
14.595225
14.597225
14.599225
14.601225
14.603225
14.605225
14.607224
14.609225
14.611225
14.613225
14.615225
14.617225
14.619225
14.621225
14.623225
14.625225
14.627225
14.629225
14.631225
14.633224
14.635225
14.637225
14.639225
14.641225
14.643225
14.645225
14.647224
14.649225
14.651225
14.653225
14.655225
14.657225
14.659225
14.661225
14.663225
14.665225
14.667225
14.669225
14.671225
14.673224
14.675225
14.677225
14.679225
14.681225
14.683225
14.685225
14.687225
14.689225
14.691225
14.693225
14.695225
14.697225
14.699224
14.701225
14.703225
14.705225
14.707225
14.709225
14.711225
14.713224
14.715225
14.717225
14.719225
14.721225
14.723225
14.725224
14.727225
14.729225
14.731225
14.733225
14.735225
14.737225
14.739224
14.741225
14.743225
14.745225
14.747225
14.749225
14.751225
14.753225
14.755225
14.757225
14.759225
14.761225
14.763225
14.765224
14.767225
14.769225
14.771225
14.773225
14.775225
14.777225
14.779225
14.781225
14.783225
14.785225
14.787225
14.789225
14.791224
14.793225
14.795225
14.797225
14.799225
14.801225
14.803225
14.805224
14.807225
14.809225
14.811225
14.813225
14.815225
14.817225
14.819225
14.821225
14.823225
14.825225
14.827225
14.829225
14.831224
14.833225
14.835225
14.837225
14.839225
14.841225
14.843225
14.845225
14.847225
14.849225
14.851225
14.853225
14.855225
14.857224
14.859225
14.861225
14.863225
14.865225
14.867225
14.869225
14.871225
14.873225
14.875225
14.877225
14.879225
14.881225
14.883224
14.885225
14.887225
14.889225
14.891225
14.893225
14.895225
14.897224
14.899225
14.901225
14.903225
14.905225
14.907225
14.909225
14.911225
14.913225
14.915225
14.917225
14.919225
14.921225
14.923224
14.925225
14.927225
14.929225
14.931225
14.933225
14.935225
14.937225
14.939225
14.941225
14.943225
14.945225
14.947225
14.949224
14.951225
14.953225
14.955225
14.957225
14.959225
14.961225
14.963224
14.965225
14.967225
14.969225
14.971225
14.973225
14.975224
14.977225
14.979225
14.981225
14.983225
14.985225
14.987225
14.989224
14.991225
14.993225
14.995225
14.997225
14.999225
15.001225
15.003225
15.005225
15.007225
15.009225
15.011225
15.013225
15.015224
15.017225
15.019225
15.021225
15.023225
15.025225
15.027225
15.029225
15.031225
15.033225
15.035225
15.037225
15.039225
15.041224
15.043225
15.045225
15.047225
15.049225
15.051225
15.053225
15.055224
15.057225
15.059225
15.061225
15.063225
15.065225
15.067225
15.069225
15.071225
15.073225
15.075225
15.077225
15.079225
15.081224
15.083225
15.085225
15.087225
15.089225
15.091225
15.093225
15.095225
15.097225
15.099225
15.101225
15.103225
15.105225
15.107224
15.109225
15.111225
15.113225
15.115225
15.117225
15.119225
15.121225
15.123225
15.125225
15.127225
15.129225
15.131225
15.133224
15.135225
15.137225
15.139225
15.141225
15.143225
15.145225
15.147224
15.149225
15.151225
15.153225
15.155225
15.157225
15.159225
15.161225
15.163225
15.165225
15.167225
15.169225
15.171225
15.173224
15.175225
15.177225
15.179225
15.181225
15.183225
15.185225
15.187225
15.189225
15.191225
15.193225
15.195225
15.197225
15.199224
15.201225
15.203225
15.205225
15.207225
15.209225
15.211225
15.213224
15.215225
15.217225
15.219225
15.221225
15.223225
15.225224
15.227225
15.229225
15.231225
15.233225
15.235225
15.237225
15.239224
15.241225
15.243225
15.245225
15.247225
15.249225
15.251225
15.253225
15.255225
15.257225
15.259225
15.261225
15.263225
15.265224
15.267225
15.269225
15.271225
15.273225
15.275225
15.277225
15.279225
15.281225
15.283225
15.285225
15.287225
15.289225
15.291224
15.293225
15.295225
15.297225
15.299225
15.301225
15.303225
15.305224
15.307225
15.309225
15.311225
15.313225
15.315225
15.317225
15.319225
15.321225
15.323225
15.325225
15.327225
15.329225
15.331224
15.333225
15.335225
15.337225
15.339225
15.341225
15.343225
15.345225
15.347225
15.349225
15.351225
15.353225
15.355225
15.357224
15.359225
15.361225
15.363225
15.365225
15.367225
15.369225
15.371225
15.373225
15.375225
15.377225
15.379225
15.381225
15.383224
15.385225
15.387225
15.389225
15.391225
15.393225
15.395225
15.397224
15.399225
15.401225
15.403225
15.405225
15.407225
15.409225
15.411225
15.413225
15.415225
15.417225
15.419225
15.421225
15.423224
15.425225
15.427225
15.429225
15.431225
15.433225
15.435225
15.437225
15.439225
15.441225
15.443225
15.445225
15.447225
15.449224
15.451225
15.453225
15.455225
15.457225
15.459225
15.461225
15.463224
15.465225
15.467225
15.469225
15.471225
15.473225
15.475224
15.477225
15.479225
15.481225
15.483225
15.485225
15.487225
15.489224
15.491225
15.493225
15.495225
15.497225
15.499225
15.501225
15.503225
15.505225
15.507225
15.509225
15.511225
15.513225
15.515224
15.517225
15.519225
15.521225
15.523225
15.525225
15.527225
15.529225
15.531225
15.533225
15.535225
15.537225
15.539225
15.541224
15.543225
15.545225
15.547225
15.549225
15.551225
15.553225
15.555224
15.557225
15.559225
15.561225
15.563225
15.565225
15.567225
15.569225
15.571225
15.573225
15.575225
15.577225
15.579225
15.581224
15.583225
15.585225
15.587225
15.589225
15.591225
15.593225
15.595225
15.597225
15.599225
15.601225
15.603225
15.605225
15.607224
15.609225
15.611225
15.613225
15.615225
15.617225
15.619225
15.621225
15.623225
15.625225
15.627225
15.629225
15.631225
15.633224
15.635225
15.637225
15.639225
15.641225
15.643225
15.645225
15.647224
15.649225
15.651225
15.653225
15.655225
15.657225
15.659225
15.661225
15.663225
15.665225
15.667225
15.669225
15.671225
15.673224
15.675225
15.677225
15.679225
15.681225
15.683225
15.685225
15.687225
15.689225
15.691225
15.693225
15.695225
15.697225
15.699224
15.701225
15.703225
15.705225
15.707225
15.709225
15.711225
15.713224
15.715225
15.717225
15.719225
15.721225
15.723225
15.725224
15.727225
15.729225
15.731225
15.733225
15.735225
15.737225
15.739224
15.741225
15.743225
15.745225
15.747225
15.749225
15.751225
15.753225
15.755225
15.757225
15.759225
15.761225
15.763225
15.765224
15.767225
15.769225
15.771225
15.773225
15.775225
15.777225
15.779225
15.781225
15.783225
15.785225
15.787225
15.789225
15.791224
15.793225
15.795225
15.797225
15.799225
15.801225
15.803225
15.805224
15.807225
15.809225
15.811225
15.813225
15.815225
15.817225
15.819225
15.821225
15.823225
15.825225
15.827225
15.829225
15.831224
15.833225
15.835225
15.837225
15.839225
15.841225
15.843225
15.845225
15.847225
15.849225
15.851225
15.853225
15.855225
15.857224
15.859225
15.861225
15.863225
15.865225
15.867225
15.869225
15.871225
15.873225
15.875225
15.877225
15.879225
15.881225
15.883224
15.885225
15.887225
15.889225
15.891225
15.893225
15.895225
15.897224
15.899225
15.901225
15.903225
15.905225
15.907225
15.909225
15.911225
15.913225
15.915225
15.917225
15.919225
15.921225
15.923224
15.925225
15.927225
15.929225
15.931225
15.933225
15.935225
15.937225
15.939225
15.941225
15.943225
15.945225
15.947225
15.949224
15.951225
15.953225
15.955225
15.957225
15.959225
15.961225
15.963224
15.965225
15.967225
15.969225
15.971225
15.973225
15.975224
15.977225
15.979225
15.981225
15.983225
15.985225
15.987225
15.989224
15.991225
15.993225
15.995225
15.997225
15.999225
16.001225
16.003225
16.005224
16.007225
16.009224
16.011225
16.013226
16.015224
16.017225
16.019224
16.021225
16.023226
16.025225
16.027225
16.029224
16.031225
16.033224
16.035225
16.037226
16.039225
16.041225
16.043224
16.045225
16.047224
16.049225
16.051226
16.053225
16.055225
16.057224
16.059225
16.061224
16.063225
16.065226
16.067225
16.069225
16.071224
16.073225
16.075226
16.077225
16.079226
16.081224
16.083225
16.085224
16.087225
16.089226
16.091225
16.093225
16.095224
16.097225
16.099224
16.101225
16.103226
16.105225
16.107225
16.109224
16.111225
16.113224
16.115225
16.117226
16.119225
16.121225
16.123224
16.125225
16.127224
16.129225
16.131226
16.133224
16.135225
16.137224
16.139225
16.141226
16.143225
16.145226
16.147224
16.149225
16.151224
16.153225
16.155226
16.157225
16.159225
16.161224
16.163225
16.165224
16.167225
16.169226
16.171225
16.173225
16.175224
16.177225
16.179224
16.181225
16.183226
16.185225
16.187225
16.189224
16.191225
16.193224
16.195225
16.197226
16.199224
16.201225
16.203224
16.205225
16.207226
16.209225
16.211226
16.213224
16.215225
16.217224
16.219225
16.221226
16.223225
16.225225
16.227224
16.229225
16.231224
16.233225
16.235226
16.237225
16.239225
16.241224
16.243225
16.245224
16.247225
16.249226
16.251225
16.253225
16.255224
16.257225
16.259224
16.261225
16.263226
16.265224
16.267225
16.269224
16.271225
16.273226
16.275225
16.277225
16.279224
16.281225
16.283224
16.285225
16.287226
16.289225
16.291225
16.293224
16.295225
16.297224
16.299225
16.301226
16.303225
16.305225
16.307224
16.309225
16.311224
16.313225
16.315226
16.317225
16.319225
16.321224
16.323225
16.325226
16.327225
16.329226
16.331224
16.333225
16.335224
16.337225
16.339226
16.341225
16.343225
16.345224
16.347225
16.349224
16.351225
16.353226
16.355225
16.357225
16.359224
16.361225
16.363224
16.365225
16.367226
16.369225
16.371225
16.373224
16.375225
16.377224
16.379225
16.381226
16.383224
16.385225
16.387224
16.389225
16.391226
16.393225
16.395226
16.397224
16.399225
16.401224
16.403225
16.405226
16.407225
16.409225
16.411224
16.413225
16.415224
16.417225
16.419226
16.421225
16.423225
16.425224
16.427225
16.429224
16.431225
16.433226
16.435225
16.437225
16.439224
16.441225
16.443224
16.445225
16.447226
16.449224
16.451225
16.453224
16.455225
16.457226
16.459225
16.461226
16.463224
16.465225
16.467224
16.469225
16.471226
16.473225
16.475225
16.477224
16.479225
16.481224
16.483225
16.485226
16.487225
16.489225
16.491224
16.493225
16.495224
16.497225
16.499226
16.501225
16.503225
16.505224
16.507225
16.509224
16.511225
16.513226
16.515224
16.517225
16.519224
16.521225
16.523226
16.525225
16.527225
16.529224
16.531225
16.533224
16.535225
16.537226
16.539225
16.541225
16.543224
16.545225
16.547224
16.549225
16.551226
16.553225
16.555225
16.557224
16.559225
16.561224
16.563225
16.565226
16.567225
16.569225
16.571224
16.573225
16.575226
16.577225
16.579226
16.581224
16.583225
16.585224
16.587225
16.589226
16.591225
16.593225
16.595224
16.597225
16.599224
16.601225
16.603226
16.605225
16.607225
16.609224
16.611225
16.613224
16.615225
16.617226
16.619225
16.621225
16.623224
16.625225
16.627224
16.629225
16.631226
16.633224
16.635225
16.637224
16.639225
16.641226
16.643225
16.645226
16.647224
16.649225
16.651224
16.653225
16.655226
16.657225
16.659225
16.661224
16.663225
16.665224
16.667225
16.669226
16.671225
16.673225
16.675224
16.677225
16.679224
16.681225
16.683226
16.685225
16.687225
16.689224
16.691225
16.693224
16.695225
16.697226
16.699224
16.701225
16.703224
16.705225
16.707226
16.709225
16.711226
16.713224
16.715225
16.717224
16.719225
16.721226
16.723225
16.725225
16.727224
16.729225
16.731224
16.733225
16.735226
16.737225
16.739225
16.741224
16.743225
16.745224
16.747225
16.749226
16.751225
16.753225
16.755224
16.757225
16.759224
16.761225
16.763226
16.765224
16.767225
16.769224
16.771225
16.773226
16.775225
16.777225
16.779224
16.781225
16.783224
16.785225
16.787226
16.789225
16.791225
16.793224
16.795225
16.797224
16.799225
16.801226
16.803225
16.805225
16.807224
16.809225
16.811224
16.813225
16.815226
16.817225
16.819225
16.821224
16.823225
16.825226
16.827225
16.829226
16.831224
16.833225
16.835224
16.837225
16.839226
16.841225
16.843225
16.845224
16.847225
16.849224
16.851225
16.853226
16.855225
16.857225
16.859224
16.861225
16.863224
16.865225
16.867226
16.869225
16.871225
16.873224
16.875225
16.877224
16.879225
16.881226
16.883224
16.885225
16.887224
16.889225
16.891226
16.893225
16.895226
16.897224
16.899225
16.901224
16.903225
16.905226
16.907225
16.909225
16.911224
16.913225
16.915224
16.917225
16.919226
16.921225
16.923225
16.925224
16.927225
16.929224
16.931225
16.933226
16.935225
16.937225
16.939224
16.941225
16.943224
16.945225
16.947226
16.949224
16.951225
16.953224
16.955225
16.957226
16.959225
16.961226
16.963224
16.965225
16.967224
16.969225
16.971226
16.973225
16.975225
16.977224
16.979225
16.981224
16.983225
16.985226
16.987225
16.989225
16.991224
16.993225
16.995224
16.997225
16.999226
17.001225
17.003225
17.005224
17.007225
17.009224
17.011225
17.013226
17.015224
17.017225
17.019224
17.021225
17.023226
17.025225
17.027225
17.029224
17.031225
17.033224
17.035225
17.037226
17.039225
17.041225
17.043224
17.045225
17.047224
17.049225
17.051226
17.053225
17.055225
17.057224
17.059225
17.061224
17.063225
17.065226
17.067225
17.069225
17.071224
17.073225
17.075226
17.077225
17.079226
17.081224
17.083225
17.085224
17.087225
17.089226
17.091225
17.093225
17.095224
17.097225
17.099224
17.101225
17.103226
17.105225
17.107225
17.109224
17.111225
17.113224
17.115225
17.117226
17.119225
17.121225
17.123224
17.125225
17.127224
17.129225
17.131226
17.133224
17.135225
17.137224
17.139225
17.141226
17.143225
17.145226
17.147224
17.149225
17.151224
17.153225
17.155226
17.157225
17.159225
17.161224
17.163225
17.165224
17.167225
17.169226
17.171225
17.173225
17.175224
17.177225
17.179224
17.181225
17.183226
17.185225
17.187225
17.189224
17.191225
17.193224
17.195225
17.197226
17.199224
17.201225
17.203224
17.205225
17.207226
17.209225
17.211226
17.213224
17.215225
17.217224
17.219225
17.221226
17.223225
17.225225
17.227224
17.229225
17.231224
17.233225
17.235226
17.237225
17.239225
17.241224
17.243225
17.245224
17.247225
17.249226
17.251225
17.253225
17.255224
17.257225
17.259224
17.261225
17.263226
17.265224
17.267225
17.269224
17.271225
17.273226
17.275225
17.277225
17.279224
17.281225
17.283224
17.285225
17.287226
17.289225
17.291225
17.293224
17.295225
17.297224
17.299225
17.301226
17.303225
17.305225
17.307224
17.309225
17.311224
17.313225
17.315226
17.317225
17.319225
17.321224
17.323225
17.325226
17.327225
17.329226
17.331224
17.333225
17.335224
17.337225
17.339226
17.341225
17.343225
17.345224
17.347225
17.349224
17.351225
17.353226
17.355225
17.357225
17.359224
17.361225
17.363224
17.365225
17.367226
17.369225
17.371225
17.373224
17.375225
17.377224
17.379225
17.381226
17.383224
17.385225
17.387224
17.389225
17.391226
17.393225
17.395226
17.397224
17.399225
17.401224
17.403225
17.405226
17.407225
17.409225
17.411224
17.413225
17.415224
17.417225
17.419226
17.421225
17.423225
17.425224
17.427225
17.429224
17.431225
17.433226
17.435225
17.437225
17.439224
17.441225
17.443224
17.445225
17.447226
17.449224
17.451225
17.453224
17.455225
17.457226
17.459225
17.461226
17.463224
17.465225
17.467224
17.469225
17.471226
17.473225
17.475225
17.477224
17.479225
17.481224
17.483225
17.485226
17.487225
17.489225
17.491224
17.493225
17.495224
17.497225
17.499226
17.501225
17.503225
17.505224
17.507225
17.509224
17.511225
17.513226
17.515224
17.517225
17.519224
17.521225
17.523226
17.525225
17.527225
17.529224
17.531225
17.533224
17.535225
17.537226
17.539225
17.541225
17.543224
17.545225
17.547224
17.549225
17.551226
17.553225
17.555225
17.557224
17.559225
17.561224
17.563225
17.565226
17.567225
17.569225
17.571224
17.573225
17.575226
17.577225
17.579226
17.581224
17.583225
17.585224
17.587225
17.589226
17.591225
17.593225
17.595224
17.597225
17.599224
17.601225
17.603226
17.605225
17.607225
17.609224
17.611225
17.613224
17.615225
17.617226
17.619225
17.621225
17.623224
17.625225
17.627224
17.629225
17.631226
17.633224
17.635225
17.637224
17.639225
17.641226
17.643225
17.645226
17.647224
17.649225
17.651224
17.653225
17.655226
17.657225
17.659225
17.661224
17.663225
17.665224
17.667225
17.669226
17.671225
17.673225
17.675224
17.677225
17.679224
17.681225
17.683226
17.685225
17.687225
17.689224
17.691225
17.693224
17.695225
17.697226
17.699224
17.701225
17.703224
17.705225
17.707226
17.709225
17.711226
17.713224
17.715225
17.717224
17.719225
17.721226
17.723225
17.725225
17.727224
17.729225
17.731224
17.733225
17.735226
17.737225
17.739225
17.741224
17.743225
17.745224
17.747225
17.749226
17.751225
17.753225
17.755224
17.757225
17.759224
17.761225
17.763226
17.765224
17.767225
17.769224
17.771225
17.773226
17.775225
17.777225
17.779224
17.781225
17.783224
17.785225
17.787226
17.789225
17.791225
17.793224
17.795225
17.797224
17.799225
17.801226
17.803225
17.805225
17.807224
17.809225
17.811224
17.813225
17.815226
17.817225
17.819225
17.821224
17.823225
17.825226
17.827225
17.829226
17.831224
17.833225
17.835224
17.837225
17.839226
17.841225
17.843225
17.845224
17.847225
17.849224
17.851225
17.853226
17.855225
17.857225
17.859224
17.861225
17.863224
17.865225
17.867226
17.869225
17.871225
17.873224
17.875225
17.877224
17.879225
17.881226
17.883224
17.885225
17.887224
17.889225
17.891226
17.893225
17.895226
17.897224
17.899225
17.901224
17.903225
17.905226
17.907225
17.909225
17.911224
17.913225
17.915224
17.917225
17.919226
17.921225
17.923225
17.925224
17.927225
17.929224
17.931225
17.933226
17.935225
17.937225
17.939224
17.941225
17.943224
17.945225
17.947226
17.949224
17.951225
17.953224
17.955225
17.957226
17.959225
17.961226
17.963224
17.965225
17.967224
17.969225
17.971226
17.973225
17.975225
17.977224
17.979225
17.981224
17.983225
17.985226
17.987225
17.989225
17.991224
17.993225
17.995224
17.997225
17.999226
18.001225
18.003225
18.005224
18.007225
18.009224
18.011225
18.013226
18.015224
18.017225
18.019224
18.021225
18.023226
18.025225
18.027225
18.029224
18.031225
18.033224
18.035225
18.037226
18.039225
18.041225
18.043224
18.045225
18.047224
18.049225
18.051226
18.053225
18.055225
18.057224
18.059225
18.061224
18.063225
18.065226
18.067225
18.069225
18.071224
18.073225
18.075226
18.077225
18.079226
18.081224
18.083225
18.085224
18.087225
18.089226
18.091225
18.093225
18.095224
18.097225
18.099224
18.101225
18.103226
18.105225
18.107225
18.109224
18.111225
18.113224
18.115225
18.117226
18.119225
18.121225
18.123224
18.125225
18.127224
18.129225
18.131226
18.133224
18.135225
18.137224
18.139225
18.141226
18.143225
18.145226
18.147224
18.149225
18.151224
18.153225
18.155226
18.157225
18.159225
18.161224
18.163225
18.165224
18.167225
18.169226
18.171225
18.173225
18.175224
18.177225
18.179224
18.181225
18.183226
18.185225
18.187225
18.189224
18.191225
18.193224
18.195225
18.197226
18.199224
18.201225
18.203224
18.205225
18.207226
18.209225
18.211226
18.213224
18.215225
18.217224
18.219225
18.221226
18.223225
18.225225
18.227224
18.229225
18.231224
18.233225
18.235226
18.237225
18.239225
18.241224
18.243225
18.245224
18.247225
18.249226
18.251225
18.253225
18.255224
18.257225
18.259224
18.261225
18.263226
18.265224
18.267225
18.269224
18.271225
18.273226
18.275225
18.277225
18.279224
18.281225
18.283224
18.285225
18.287226
18.289225
18.291225
18.293224
18.295225
18.297224
18.299225
18.301226
18.303225
18.305225
18.307224
18.309225
18.311224
18.313225
18.315226
18.317225
18.319225
18.321224
18.323225
18.325226
18.327225
18.329226
18.331224
18.333225
18.335224
18.337225
18.339226
18.341225
18.343225
18.345224
18.347225
18.349224
18.351225
18.353226
18.355225
18.357225
18.359224
18.361225
18.363224
18.365225
18.367226
18.369225
18.371225
18.373224
18.375225
18.377224
18.379225
18.381226
18.383224
18.385225
18.387224
18.389225
18.391226
18.393225
18.395226
18.397224
18.399225
18.401224
18.403225
18.405226
18.407225
18.409225
18.411224
18.413225
18.415224
18.417225
18.419226
18.421225
18.423225
18.425224
18.427225
18.429224
18.431225
18.433226
18.435225
18.437225
18.439224
18.441225
18.443224
18.445225
18.447226
18.449224
18.451225
18.453224
18.455225
18.457226
18.459225
18.461226
18.463224
18.465225
18.467224
18.469225
18.471226
18.473225
18.475225
18.477224
18.479225
18.481224
18.483225
18.485226
18.487225
18.489225
18.491224
18.493225
18.495224
18.497225
18.499226
18.501225
18.503225
18.505224
18.507225
18.509224
18.511225
18.513226
18.515224
18.517225
18.519224
18.521225
18.523226
18.525225
18.527225
18.529224
18.531225
18.533224
18.535225
18.537226
18.539225
18.541225
18.543224
18.545225
18.547224
18.549225
18.551226
18.553225
18.555225
18.557224
18.559225
18.561224
18.563225
18.565226
